350;351;352;353;354;355;356;357;358;359;360;361;362;363;364;365;366;367;368;369;370;371;372;373;374;375;376;377;378;379;380;381;382;383;384;385;386;387;388;389;390;391;392;393;394;395;396;397;398;399;400;401;402;403;404;405;406;407;408;409;410;411;412;413;414;415;416;417;418;419;420;421;422;423;424;425;426;427;428;429;430;431;432;433;434;435;436;437;438;439;440;441;442;443;444;445;446;447;448;449;450;451;452;453;454;455;456;457;458;459;460;461;462;463;464;465;466;467;468;469;470;471;472;473;474;475;476;477;478;479;480;481;482;483;484;485;486;487;488;489;490;491;492;493;494;495;496;497;498;499;500;501;502;503;504;505;506;507;508;509;510;511;512;513;514;515;516;517;518;519;520;521;522;523;524;525;526;527;528;529;530;531;532;533;534;535;536;537;538;539;540;541;542;543;544;545;546;547;548;549;550;551;552;553;554;555;556;557;558;559;560;561;562;563;564;565;566;567;568;569;570;571;572;573;574;575;576;577;578;579;580;581;582;583;584;585;586;587;588;589;590;591;592;593;594;595;596;597;598;599;600;601;602;603;604;605;606;607;608;609;610;611;612;613;614;615;616;617;618;619;620;621;622;623;624;625;626;627;628;629;630;631;632;633;634;635;636;637;638;639;640;641;642;643;644;645;646;647;648;649;650;651;652;653;654;655;656;657;658;659;660;661;662;663;664;665;666;667;668;669;670;671;672;673;674;675;676;677;678;679;680;681;682;683;684;685;686;687;688;689;690;691;692;693;694;695;696;697;698;699;700;701;702;703;704;705;706;707;708;709;710;711;712;713;714;715;716;717;718;719;720;721;722;723;724;725;726;727;728;729;730;731;732;733;734;735;736;737;738;739;740;741;742;743;744;745;746;747;748;749;750;751;752;753;754;755;756;757;758;759;760;761;762;763;764;765;766;767;768;769;770;771;772;773;774;775;776;777;778;779;780;781;782;783;784;785;786;787;788;789;790;791;792;793;794;795;796;797;798;799;800;801;802;803;804;805;806;807;808;809;810;811;812;813;814;815;816;817;818;819;820;821;822;823;824;825;826;827;828;829;830;831;832;833;834;835;836;837;838;839;840;841;842;843;844;845;846;847;848;849;850;851;852;853;854;855;856;857;858;859;860;861;862;863;864;865;866;867;868;869;870;871;872;873;874;875;876;877;878;879;880;881;882;883;884;885;886;887;888;889;890;891;892;893;894;895;896;897;898;899;900;901;902;903;904;905;906;907;908;909;910;911;912;913;914;915;916;917;918;919;920;921;922;923;924;925;926;927;928;929;930;931;932;933;934;935;936;937;938;939;940;941;942;943;944;945;946;947;948;949;950;951;952;953;954;955;956;957;958;959;960;961;962;963;964;965;966;967;968;969;970;971;972;973;974;975;976;977;978;979;980;981;982;983;984;985;986;987;988;989;990;991;992;993;994;995;996;997;998;999;1000;1001;1002;1003;1004;1005;1006;1007;1008;1009;1010;1011;1012;1013;1014;1015;1016;1017;1018;1019;1020;1021;1022;1023;1024;1025;1026;1027;1028;1029;1030;1031;1032;1033;1034;1035;1036;1037;1038;1039;1040;1041;1042;1043;1044;1045;1046;1047;1048;1049;1050;1051;1052;1053;1054;1055;1056;1057;1058;1059;1060;1061;1062;1063;1064;1065;1066;1067;1068;1069;1070;1071;1072;1073;1074;1075;1076;1077;1078;1079;1080;1081;1082;1083;1084;1085;1086;1087;1088;1089;1090;1091;1092;1093;1094;1095;1096;1097;1098;1099;1100;1101;1102;1103;1104;1105;1106;1107;1108;1109;1110;1111;1112;1113;1114;1115;1116;1117;1118;1119;1120;1121;1122;1123;1124;1125;1126;1127;1128;1129;1130;1131;1132;1133;1134;1135;1136;1137;1138;1139;1140;1141;1142;1143;1144;1145;1146;1147;1148;1149;1150;1151;1152;1153;1154;1155;1156;1157;1158;1159;1160;1161;1162;1163;1164;1165;1166;1167;1168;1169;1170;1171;1172;1173;1174;1175;1176;1177;1178;1179;1180;1181;1182;1183;1184;1185;1186;1187;1188;1189;1190;1191;1192;1193;1194;1195;1196;1197;1198;1199;1200;1201;1202;1203;1204;1205;1206;1207;1208;1209;1210;1211;1212;1213;1214;1215;1216;1217;1218;1219;1220;1221;1222;1223;1224;1225;1226;1227;1228;1229;1230;1231;1232;1233;1234;1235;1236;1237;1238;1239;1240;1241;1242;1243;1244;1245;1246;1247;1248;1249;1250;1251;1252;1253;1254;1255;1256;1257;1258;1259;1260;1261;1262;1263;1264;1265;1266;1267;1268;1269;1270;1271;1272;1273;1274;1275;1276;1277;1278;1279;1280;1281;1282;1283;1284;1285;1286;1287;1288;1289;1290;1291;1292;1293;1294;1295;1296;1297;1298;1299;1300;1301;1302;1303;1304;1305;1306;1307;1308;1309;1310;1311;1312;1313;1314;1315;1316;1317;1318;1319;1320;1321;1322;1323;1324;1325;1326;1327;1328;1329;1330;1331;1332;1333;1334;1335;1336;1337;1338;1339;1340;1341;1342;1343;1344;1345;1346;1347;1348;1349;1350;1351;1352;1353;1354;1355;1356;1357;1358;1359;1360;1361;1362;1363;1364;1365;1366;1367;1368;1369;1370;1371;1372;1373;1374;1375;1376;1377;1378;1379;1380;1381;1382;1383;1384;1385;1386;1387;1388;1389;1390;1391;1392;1393;1394;1395;1396;1397;1398;1399;1400;1401;1402;1403;1404;1405;1406;1407;1408;1409;1410;1411;1412;1413;1414;1415;1416;1417;1418;1419;1420;1421;1422;1423;1424;1425;1426;1427;1428;1429;1430;1431;1432;1433;1434;1435;1436;1437;1438;1439;1440;1441;1442;1443;1444;1445;1446;1447;1448;1449;1450;1451;1452;1453;1454;1455;1456;1457;1458;1459;1460;1461;1462;1463;1464;1465;1466;1467;1468;1469;1470;1471;1472;1473;1474;1475;1476;1477;1478;1479;1480;1481;1482;1483;1484;1485;1486;1487;1488;1489;1490;1491;1492;1493;1494;1495;1496;1497;1498;1499;1500;1501;1502;1503;1504;1505;1506;1507;1508;1509;1510;1511;1512;1513;1514;1515;1516;1517;1518;1519;1520;1521;1522;1523;1524;1525;1526;1527;1528;1529;1530;1531;1532;1533;1534;1535;1536;1537;1538;1539;1540;1541;1542;1543;1544;1545;1546;1547;1548;1549;1550;1551;1552;1553;1554;1555;1556;1557;1558;1559;1560;1561;1562;1563;1564;1565;1566;1567;1568;1569;1570;1571;1572;1573;1574;1575;1576;1577;1578;1579;1580;1581;1582;1583;1584;1585;1586;1587;1588;1589;1590;1591;1592;1593;1594;1595;1596;1597;1598;1599;1600;1601;1602;1603;1604;1605;1606;1607;1608;1609;1610;1611;1612;1613;1614;1615;1616;1617;1618;1619;1620;1621;1622;1623;1624;1625;1626;1627;1628;1629;1630;1631;1632;1633;1634;1635;1636;1637;1638;1639;1640;1641;1642;1643;1644;1645;1646;1647;1648;1649;1650;1651;1652;1653;1654;1655;1656;1657;1658;1659;1660;1661;1662;1663;1664;1665;1666;1667;1668;1669;1670;1671;1672;1673;1674;1675;1676;1677;1678;1679;1680;1681;1682;1683;1684;1685;1686;1687;1688;1689;1690;1691;1692;1693;1694;1695;1696;1697;1698;1699;1700;1701;1702;1703;1704;1705;1706;1707;1708;1709;1710;1711;1712;1713;1714;1715;1716;1717;1718;1719;1720;1721;1722;1723;1724;1725;1726;1727;1728;1729;1730;1731;1732;1733;1734;1735;1736;1737;1738;1739;1740;1741;1742;1743;1744;1745;1746;1747;1748;1749;1750;1751;1752;1753;1754;1755;1756;1757;1758;1759;1760;1761;1762;1763;1764;1765;1766;1767;1768;1769;1770;1771;1772;1773;1774;1775;1776;1777;1778;1779;1780;1781;1782;1783;1784;1785;1786;1787;1788;1789;1790;1791;1792;1793;1794;1795;1796;1797;1798;1799;1800;1801;1802;1803;1804;1805;1806;1807;1808;1809;1810;1811;1812;1813;1814;1815;1816;1817;1818;1819;1820;1821;1822;1823;1824;1825;1826;1827;1828;1829;1830;1831;1832;1833;1834;1835;1836;1837;1838;1839;1840;1841;1842;1843;1844;1845;1846;1847;1848;1849;1850;1851;1852;1853;1854;1855;1856;1857;1858;1859;1860;1861;1862;1863;1864;1865;1866;1867;1868;1869;1870;1871;1872;1873;1874;1875;1876;1877;1878;1879;1880;1881;1882;1883;1884;1885;1886;1887;1888;1889;1890;1891;1892;1893;1894;1895;1896;1897;1898;1899;1900;1901;1902;1903;1904;1905;1906;1907;1908;1909;1910;1911;1912;1913;1914;1915;1916;1917;1918;1919;1920;1921;1922;1923;1924;1925;1926;1927;1928;1929;1930;1931;1932;1933;1934;1935;1936;1937;1938;1939;1940;1941;1942;1943;1944;1945;1946;1947;1948;1949;1950;1951;1952;1953;1954;1955;1956;1957;1958;1959;1960;1961;1962;1963;1964;1965;1966;1967;1968;1969;1970;1971;1972;1973;1974;1975;1976;1977;1978;1979;1980;1981;1982;1983;1984;1985;1986;1987;1988;1989;1990;1991;1992;1993;1994;1995;1996;1997;1998;1999;2000;2001;2002;2003;2004;2005;2006;2007;2008;2009;2010;2011;2012;2013;2014;2015;2016;2017;2018;2019;2020;2021;2022;2023;2024;2025;2026;2027;2028;2029;2030;2031;2032;2033;2034;2035;2036;2037;2038;2039;2040;2041;2042;2043;2044;2045;2046;2047;2048;2049;2050;2051;2052;2053;2054;2055;2056;2057;2058;2059;2060;2061;2062;2063;2064;2065;2066;2067;2068;2069;2070;2071;2072;2073;2074;2075;2076;2077;2078;2079;2080;2081;2082;2083;2084;2085;2086;2087;2088;2089;2090;2091;2092;2093;2094;2095;2096;2097;2098;2099;2100;2101;2102;2103;2104;2105;2106;2107;2108;2109;2110;2111;2112;2113;2114;2115;2116;2117;2118;2119;2120;2121;2122;2123;2124;2125;2126;2127;2128;2129;2130;2131;2132;2133;2134;2135;2136;2137;2138;2139;2140;2141;2142;2143;2144;2145;2146;2147;2148;2149;2150;2151;2152;2153;2154;2155;2156;2157;2158;2159;2160;2161;2162;2163;2164;2165;2166;2167;2168;2169;2170;2171;2172;2173;2174;2175;2176;2177;2178;2179;2180;2181;2182;2183;2184;2185;2186;2187;2188;2189;2190;2191;2192;2193;2194;2195;2196;2197;2198;2199;2200;2201;2202;2203;2204;2205;2206;2207;2208;2209;2210;2211;2212;2213;2214;2215;2216;2217;2218;2219;2220;2221;2222;2223;2224;2225;2226;2227;2228;2229;2230;2231;2232;2233;2234;2235;2236;2237;2238;2239;2240;2241;2242;2243;2244;2245;2246;2247;2248;2249;2250;2251;2252;2253;2254;2255;2256;2257;2258;2259;2260;2261;2262;2263;2264;2265;2266;2267;2268;2269;2270;2271;2272;2273;2274;2275;2276;2277;2278;2279;2280;2281;2282;2283;2284;2285;2286;2287;2288;2289;2290;2291;2292;2293;2294;2295;2296;2297;2298;2299;2300;2301;2302;2303;2304;2305;2306;2307;2308;2309;2310;2311;2312;2313;2314;2315;2316;2317;2318;2319;2320;2321;2322;2323;2324;2325;2326;2327;2328;2329;2330;2331;2332;2333;2334;2335;2336;2337;2338;2339;2340;2341;2342;2343;2344;2345;2346;2347;2348;2349;2350;2351;2352;2353;2354;2355;2356;2357;2358;2359;2360;2361;2362;2363;2364;2365;2366;2367;2368;2369;2370;2371;2372;2373;2374;2375;2376;2377;2378;2379;2380;2381;2382;2383;2384;2385;2386;2387;2388;2389;2390;2391;2392;2393;2394;2395;2396;2397;2398;2399;2400;2401;2402;2403;2404;2405;2406;2407;2408;2409;2410;2411;2412;2413;2414;2415;2416;2417;2418;2419;2420;2421;2422;2423;2424;2425;2426;2427;2428;2429;2430;2431;2432;2433;2434;2435;2436;2437;2438;2439;2440;2441;2442;2443;2444;2445;2446;2447;2448;2449;2450;2451;2452;2453;2454;2455;2456;2457;2458;2459;2460;2461;2462;2463;2464;2465;2466;2467;2468;2469;2470;2471;2472;2473;2474;2475;2476;2477;2478;2479;2480;2481;2482;2483;2484;2485;2486;2487;2488;2489;2490;2491;2492;2493;2494;2495;2496;2497;2498;2499;2500
1.0825334;1.065425;1.047731;1.1843853;1.1126965;1.0913072;1.1399313;1.1384902;1.0357965;1.0351572;1.1320279;1.0974214;1.0678999;1.0692908;1.0963348;1.1261468;1.1122068;1.0947893;1.1083013;1.0704892;1.0620801;1.0809796;1.0822524;1.0849537;1.0902376;1.091904;1.0777471;1.0824457;1.0886551;1.0835177;1.0940636;1.0932686;1.0828928;1.0761373;1.0812765;1.0878643;1.0855654;1.06925;1.0840002;1.0926052;1.0790737;1.088841;1.0941671;1.0912653;1.0847056;1.0812875;1.0804826;1.0817028;1.0835053;1.0769943;1.0746871;1.0799356;1.0821947;1.0815541;1.0793511;1.0777459;1.0802951;1.0771871;1.0734066;1.0777565;1.0802879;1.0794821;1.0767875;1.0756499;1.0740477;1.073864;1.0755365;1.0749694;1.0753541;1.0749187;1.0719815;1.0742421;1.0704439;1.0637488;1.0677003;1.0690579;1.0695622;1.0703859;1.0668664;1.0678924;1.0694876;1.0664418;1.0657365;1.0664064;1.0656801;1.0607384;1.0605277;1.0616055;1.0609821;1.0592366;1.0576291;1.0580212;1.0604763;1.0576177;1.0564811;1.0580857;1.0589776;1.0579752;1.0563358;1.0554694;1.0565388;1.0567801;1.055794;1.0542642;1.0538043;1.0535544;1.0528258;1.0513059;1.0506896;1.0506873;1.0504763;1.0486768;1.0482832;1.0480329;1.0464021;1.04758;1.0470452;1.0450966;1.0459312;1.0452518;1.0439005;1.0429686;1.0422641;1.0418605;1.0414537;1.0406524;1.0392028;1.0391237;1.0399443;1.0388024;1.038239;1.0376271;1.0365276;1.0366898;1.0354555;1.0338305;1.0339316;1.0333898;1.0325848;1.0317067;1.0304666;1.0308446;1.0307708;1.0286375;1.0271894;1.0263932;1.0258079;1.0247974;1.0236853;1.0222964;1.0208358;1.0201448;1.0193986;1.0185735;1.0176774;1.0158502;1.01432;1.0131662;1.0116763;1.0109962;1.0103734;1.0093515;1.0085999;1.0081494;1.0077174;1.0068585;1.0050066;1.0033261;1.0025595;1.0028466;1.0018851;1.0009731;1.0010698;1.0002114;0.9993774;0.998525;0.997268;0.9964498;0.9960933;0.995685;0.9941122;0.9923834;0.9911761;0.9907127;0.9900424;0.9892623;0.9882854;0.986927;0.9854056;0.9844127;0.9841233;0.9836855;0.9826371;0.9816306;0.9814024;0.9805281;0.9798904;0.9794861;0.9782792;0.9769382;0.9759975;0.9755389;0.9744517;0.9738506;0.9733052;0.9718133;0.971132;0.9705145;0.9696056;0.9690595;0.968652;0.9686535;0.969198;0.9692744;0.9693596;0.9695042;0.9693238;0.9685926;0.967132;0.9651609;0.9636724;0.9625859;0.9617696;0.9610543;0.9605699;0.9596414;0.9577766;0.9548146;0.9525197;0.9511847;0.9505307;0.9499964;0.949964;0.9501694;0.9498948;0.9489368;0.9478991;0.9472405;0.9469655;0.9465485;0.9459599;0.9453855;0.9450356;0.9446927;0.9440833;0.942931;0.9418793;0.9410504;0.9403559;0.9394779;0.9386911;0.9379628;0.9370868;0.9360756;0.9348984;0.9336776;0.9328017;0.9318759;0.9308086;0.9296408;0.9284987;0.9273739;0.926169;0.9247226;0.9233366;0.9223077;0.9215981;0.9203397;0.9191076;0.9179389;0.9166675;0.9155893;0.9144899;0.9133696;0.9126;0.9117551;0.9106115;0.9092579;0.9087329;0.9079447;0.9068098;0.9060008;0.9050011;0.9039121;0.9028907;0.9020295;0.9011557;0.900256;0.8993457;0.8982332;0.8970275;0.8959517;0.8953096;0.8942885;0.8932143;0.8924221;0.8914408;0.8903708;0.889341;0.8884497;0.8872695;0.8862979;0.8855888;0.884293;0.883339;0.8824337;0.8811394;0.8800883;0.8790879;0.8781796;0.877566;0.8764964;0.8752801;0.8741896;0.8729728;0.8717915;0.8707902;0.8700139;0.8689824;0.8678304;0.8667334;0.8658452;0.8650674;0.8639887;0.8624578;0.8612342;0.8602415;0.8593317;0.8583178;0.8572033;0.8560358;0.8549122;0.8539959;0.8530171;0.8519862;0.850964;0.8498526;0.8487236;0.8476239;0.846589;0.8459655;0.8449743;0.8434311;0.8426468;0.8414869;0.840185;0.8392734;0.8383057;0.8371204;0.8358465;0.8348512;0.8339356;0.8327608;0.8312742;0.8301324;0.828926;0.8276851;0.8265828;0.8255365;0.8243397;0.8229911;0.8217127;0.8205156;0.8192695;0.8179075;0.8166547;0.815313;0.8139232;0.8126464;0.811579;0.8103992;0.8089784;0.8074607;0.8063394;0.8051548;0.8036181;0.802688;0.8016635;0.8003457;0.7988756;0.7976878;0.7965723;0.7953378;0.7939317;0.7923811;0.7909813;0.7898989;0.7887233;0.787478;0.786213;0.7849509;0.7832773;0.7817497;0.780475;0.7788762;0.7774729;0.7763;0.7752081;0.7738696;0.7726532;0.7715695;0.7704204;0.7690768;0.7675647;0.7660392;0.7647817;0.7636649;0.7623697;0.7608343;0.7598616;0.7586052;0.7572354;0.7563007;0.7554548;0.7542603;0.7528268;0.7518224;0.7505836;0.7493052;0.7481375;0.7467226;0.7452845;0.7439363;0.7427464;0.7417756;0.7408134;0.7396864;0.7383042;0.736952;0.7357506;0.7346556;0.7333741;0.7320927;0.730904;0.7298268;0.7287405;0.7274612;0.7260697;0.7248021;0.7235503;0.7224309;0.7214108;0.7202452;0.7189119;0.7176965;0.7167451;0.7155768;0.714492;0.713466;0.7123324;0.7110092;0.7098228;0.7087893;0.7076296;0.7066211;0.7056752;0.7046832;0.7036182;0.7024906;0.701431;0.7005114;0.6995132;0.6982609;0.6969343;0.6958678;0.694885;0.6938516;0.6926292;0.6911185;0.6899924;0.6891809;0.6884094;0.6873356;0.6860285;0.6846814;0.6834682;0.6823281;0.681251;0.6801148;0.678811;0.6776907;0.6764598;0.6751718;0.6742682;0.6732591;0.6722172;0.6711621;0.6698288;0.6684644;0.6673608;0.6665903;0.6654921;0.6643488;0.6632023;0.6620077;0.6609331;0.6599154;0.6589266;0.657985;0.6570762;0.6560774;0.6549822;0.6539664;0.6532013;0.6523048;0.6510956;0.6501513;0.6493648;0.6484011;0.6470532;0.6459039;0.6447331;0.6436703;0.6429039;0.6418203;0.6407678;0.639782;0.6385958;0.637485;0.6363989;0.6353227;0.6343452;0.633347;0.6323899;0.6315029;0.6305916;0.6294795;0.6281983;0.6269145;0.6259711;0.625064;0.6241035;0.6230755;0.6218398;0.6207096;0.619726;0.6187224;0.6175703;0.6164583;0.6154564;0.6144939;0.6136252;0.6127303;0.6117774;0.6108774;0.6099569;0.608945;0.6078535;0.6068251;0.6059614;0.6052331;0.6045449;0.6037647;0.6028391;0.601777;0.600699;0.5999604;0.599353;0.5987932;0.5982291;0.5975763;0.596549;0.5952747;0.5941056;0.5932391;0.5924258;0.5915586;0.5906588;0.5897478;0.588778;0.5878237;0.5870426;0.5864322;0.5857059;0.5848292;0.5840328;0.583153;0.5821084;0.5810241;0.5802131;0.5794586;0.5787436;0.5780931;0.577538;0.5768839;0.5758435;0.5745942;0.5739734;0.5731316;0.5722722;0.5716041;0.5709471;0.5702568;0.5695463;0.5688007;0.5679101;0.5672165;0.5666627;0.5661561;0.5657686;0.5652277;0.5646107;0.5640014;0.5632511;0.5631347;0.5628884;0.5620223;0.5616417;0.5613626;0.5609488;0.5603064;0.5595992;0.5588543;0.5581119;0.5574164;0.5568144;0.5562497;0.5557965;0.5554283;0.5548472;0.5540967;0.5533051;0.5525694;0.5518672;0.5509967;0.5502192;0.5496196;0.5487656;0.5477788;0.5469499;0.546325;0.5454931;0.5445328;0.5436476;0.5429344;0.5422625;0.5413279;0.5402398;0.5391937;0.5383497;0.5376084;0.5368611;0.536027;0.535095;0.5342991;0.5332075;0.5319244;0.531028;0.5302562;0.529393;0.5285644;0.5278667;0.5270441;0.5262261;0.5254269;0.5245635;0.5236558;0.5228248;0.521974;0.5211651;0.5204397;0.5196638;0.5188386;0.5180714;0.5173473;0.5166081;0.5158749;0.515151;0.5144188;0.5136992;0.512955;0.5123079;0.511639;0.5109945;0.5103018;0.5096168;0.5089003;0.5081295;0.5073946;0.5066412;0.5059365;0.5052819;0.5045885;0.5039239;0.5032628;0.5025213;0.5017974;0.5010753;0.5003275;0.499597;0.4988959;0.4981811;0.4974549;0.4967423;0.4960577;0.4953139;0.4945031;0.4937844;0.493046;0.4923528;0.4917275;0.49103;0.4903034;0.4895709;0.4888275;0.4880298;0.4873233;0.4866735;0.485959;0.4852672;0.4845738;0.4838358;0.4831032;0.4824524;0.4818517;0.4812267;0.480583;0.4799377;0.4792696;0.4786441;0.4780124;0.477393;0.4767988;0.4762167;0.4756574;0.475066;0.4744788;0.4738806;0.4732955;0.4727412;0.4722009;0.4716352;0.4710974;0.4706149;0.4701581;0.4697121;0.469222;0.4686648;0.4681715;0.4677172;0.4672512;0.4667906;0.4663833;0.4659182;0.4654574;0.4650789;0.4646499;0.4642433;0.4638807;0.4634822;0.4630639;0.4626539;0.4622604;0.4618897;0.4615644;0.461214;0.4608543;0.4604822;0.4601143;0.4596875;0.4592793;0.4589372;0.4585676;0.4582057;0.4579275;0.45763;0.4572908;0.4570123;0.4567525;0.4564999;0.4562716;0.4560046;0.4557824;0.4556101;0.4554672;0.4553212;0.4552595;0.4552574;0.4552715;0.4553644;0.4555346;0.4557465;0.4559979;0.4563164;0.4567148;0.4571647;0.4576683;0.4582383;0.4588635;0.4595661;0.4602654;0.4610078;0.4617881;0.4625892;0.4634286;0.4643124;0.4651707;0.4659957;0.4667671;0.467535;0.4682726;0.4689317;0.4695655;0.4700943;0.4705384;0.4709377;0.4712712;0.4715504;0.47179;0.4719432;0.4719969;0.4720595;0.4720778;0.4720618;0.4720114;0.471942;0.4718019;0.4716429;0.4715924;0.4715165;0.4713921;0.4712539;0.4711004;0.4708562;0.470699;0.4705971;0.4704664;0.4703461;0.4702084;0.4700269;0.4699101;0.4698209;0.4697344;0.4696825;0.4696433;0.4695913;0.469538;0.4695124;0.4694869;0.4694184;0.469341;0.4692202;0.4690497;0.4688888;0.4687239;0.4685278;0.4683072;0.4680771;0.4678085;0.4675552;0.4673108;0.4670493;0.4668041;0.4665292;0.4662618;0.4660417;0.4657736;0.4654899;0.465142;0.4647537;0.4643005;0.463804;0.463244;0.4626122;0.461957;0.4612456;0.4605086;0.4597342;0.4589368;0.4580992;0.4572503;0.4563667;0.4554909;0.4545913;0.4536937;0.4528463;0.4520218;0.4512026;0.4504099;0.4496351;0.4488706;0.4481173;0.4473668;0.4466725;0.445997;0.4453482;0.4447562;0.4441757;0.4436028;0.4430532;0.4425504;0.4420445;0.4415522;0.4410625;0.4405566;0.4400359;0.4395608;0.4390824;0.4386449;0.4382586;0.4378625;0.4374786;0.437093;0.4367033;0.4363443;0.436001;0.4356645;0.4353642;0.4350481;0.4347124;0.4343998;0.4340835;0.4337971;0.4335389;0.4332922;0.433046;0.4328264;0.4325746;0.4322978;0.4320626;0.4318173;0.4316213;0.4314734;0.4313162;0.4311914;0.4310414;0.4308879;0.4307321;0.4305386;0.4304002;0.4302947;0.4301847;0.4300999;0.4300216;0.4299252;0.4298624;0.429811;0.4298073;0.4298127;0.429841;0.4298826;0.4299437;0.4300223;0.4301163;0.4302286;0.430353;0.4305129;0.4306899;0.4308985;0.431141;0.4314076;0.4317073;0.432016;0.4323371;0.4326907;0.4330527;0.4334553;0.4338971;0.4343671;0.4348746;0.4353931;0.4359466;0.4365188;0.4371494;0.4378116;0.4385206;0.439288;0.4400732;0.4408911;0.4417337;0.4425974;0.4435078;0.444436;0.4454319;0.446499;0.4475741;0.4487093;0.4498375;0.4509659;0.4521261;0.453296;0.4545021;0.455746;0.4570175;0.4582795;0.4595472;0.460835;0.4621435;0.4634558;0.4648035;0.4661369;0.4674586;0.4688009;0.4701606;0.4715203;0.4729121;0.4742516;0.475563;0.4768951;0.4782081;0.479529;0.4808755;0.4822075;0.4835245;0.4848386;0.4861149;0.4874645;0.4888285;0.4902326;0.4916878;0.4931645;0.4946772;0.4962602;0.4979624;0.4997977;0.5017809;0.5038812;0.5061585;0.5085517;0.5112005;0.5140299;0.5170716;0.5202983;0.5238385;0.5276158;0.5316899;0.5360271;0.5407701;0.5458645;0.5512862;0.5570878;0.5633406;0.5700482;0.5770695;0.5845606;0.5924245;0.6007283;0.609246;0.6181218;0.6274178;0.6369139;0.6466836;0.6565645;0.6665773;0.6766527;0.6868302;0.6968583;0.7070481;0.7169567;0.7266897;0.7361961;0.7455706;0.7546088;0.7633336;0.7716429;0.7795836;0.7871957;0.7943276;0.8011371;0.8075708;0.8136154;0.8191696;0.8243642;0.8290764;0.8335732;0.8376843;0.8414931;0.8450306;0.8482245;0.8511062;0.8537376;0.8561823;0.8584335;0.8605316;0.8624532;0.864176;0.8657897;0.8672873;0.8686001;0.8697755;0.8708257;0.8717544;0.872485;0.8731878;0.873837;0.8743287;0.8746737;0.8749875;0.875187;0.8753604;0.8754883;0.8755457;0.8755096;0.8754746;0.8754361;0.8753154;0.8751279;0.8749202;0.8746472;0.8743442;0.8740245;0.8736853;0.8732575;0.872824;0.8723371;0.8718009;0.8712175;0.8705263;0.8698096;0.869049;0.8681519;0.8672041;0.8661675;0.8649369;0.8636385;0.8622195;0.8606434;0.8589851;0.8572101;0.8553189;0.8533461;0.8512769;0.8491173;0.8468173;0.8445256;0.8421707;0.8397777;0.8373698;0.8349262;0.832436;0.8298838;0.8272691;0.8246508;0.8219958;0.8193173;0.8166252;0.8139337;0.8111846;0.8084522;0.805755;0.8030188;0.8002508;0.7974953;0.7947235;0.7919679;0.7892288;0.7864778;0.7837278;0.7809397;0.7781461;0.7753497;0.7725046;0.7696992;0.7669137;0.7641232;0.7613762;0.7585835;0.7558153;0.7530982;0.7503191;0.7475908;0.7448725;0.7420998;0.7394015;0.7367098;0.7340319;0.7313904;0.7287323;0.7260913;0.7234508;0.7207937;0.7181699;0.7155692;0.7129683;0.7103879;0.7077799;0.7051464;0.7025914;0.7000436;0.6975322;0.6950774;0.6926131;0.6901759;0.6877136;0.6852304;0.6828132;0.6804054;0.6780091;0.6756454;0.673313;0.6710002;0.6686859;0.6664087;0.6641532;0.6618727;0.6596403;0.6574515;0.6552848;0.6531552;0.6510242;0.6489057;0.6468257;0.6447533;0.6426988;0.6406476;0.6386719;0.6367449;0.6348378;0.6329848;0.6311756;0.6294032;0.6276187;0.6259009;0.6241892;0.6225085;0.6208463;0.6191733;0.617578;0.6159766;0.614338;0.6127583;0.6112072;0.6096686;0.6081849;0.6066987;0.6052147;0.603744;0.6022683;0.6008726;0.5995108;0.5981675;0.5968663;0.5955155;0.5941729;0.5928658;0.5915673;0.5903105;0.5890658;0.5878159;0.5865481;0.5853124;0.5841399;0.5829898;0.5818581;0.5807208;0.5795712;0.57845;0.5773477;0.5762317;0.5751602;0.5740975;0.5730212;0.5720285;0.5710484;0.5700762;0.5691328;0.5681506;0.5671993;0.566271;0.5653101;0.564379;0.5634754;0.5625944;0.5617582;0.5609391;0.5601434;0.5593494;0.5585405;0.5577496;0.556964;0.5562082;0.5554733;0.554732;0.5540135;0.5532998;0.5525615;0.5518818;0.5512373;0.5506053;0.550009;0.5494039;0.5488128;0.5482271;0.5476385;0.5470707;0.546518;0.5459714;0.5454321;0.5449205;0.5444216;0.5439482;0.5434988;0.5430652;0.5426536;0.542249;0.5418617;0.5414868;0.5411114;0.5407875;0.5404891;0.5402247;0.539993;0.5397827;0.5396421;0.5395428;0.5394552;0.5393726;0.5393302;0.5393267;0.5393691;0.5394725;0.5395712;0.5396861;0.539869;0.5400773;0.5403124;0.5405846;0.5408719;0.5411852;0.5415602;0.5420042;0.5424935;0.5430237;0.5436211;0.5442918;0.5450133;0.5457942;0.5466604;0.5475946;0.5485891;0.5496986;0.5509118;0.5522079;0.5535596;0.554991;0.5564946;0.5581294;0.5597199;0.5613786;0.5629991;0.564616;0.5661589;0.5676438;0.5691261;0.5705611;0.5719442;0.5733055;0.5746474;0.5758758;0.5771783;0.5784825;0.5798566;0.5812958;0.5827403;0.5842369;0.5857474;0.5872515;0.5888076;0.5904254;0.5920383;0.5936933;0.5953227;0.5969346;0.5985765;0.6002451;0.6018752;0.6035355;0.6051256;0.6066968;0.6081585;0.6095671;0.610876;0.6120946;0.6131882;0.6142386;0.6150452;0.6156903;0.6161283;0.6163595;0.6164115;0.6162409;0.6159654;0.6154788;0.6149718;0.6143188;0.6137195;0.6130228;0.6124958;0.611972;0.6116816;0.6115046;0.6115591;0.6118101;0.6122366;0.6128114;0.6135105;0.6143557;0.6153969;0.6165501;0.6179417;0.6193303;0.6208211;0.6223192;0.6239372;0.625412;0.6268225;0.628231;0.6295771;0.6308535;0.6321937;0.6333235;0.6342878;0.6351449;0.6358616;0.6364745;0.6369645;0.6373358;0.6375352;0.6377373;0.6378155;0.6379268;0.6380035;0.6381329;0.638257;0.6384246;0.6386503;0.6388488;0.6390449;0.6392713;0.6395111;0.6397566;0.6400343;0.6402417;0.6404957;0.6407243;0.6409443;0.6411589;0.6413342;0.6415523;0.6417594;0.6419957;0.6421698;0.6422542;0.6423742;0.6424707;0.6425776;0.6427301;0.6428282;0.6429166;0.6429651;0.6429567;0.6597576;0.6597326;0.6597314;0.6597311;0.6596186;0.6595629;0.6593546;0.6589783;0.6585829;0.6581366;0.6576235;0.657133;0.6565306;0.6560726;0.6556427;0.6552824;0.6550028;0.654736;0.6545444;0.6543059;0.6541352;0.6539585;0.6539001;0.6538898;0.6539534;0.6541076;0.6543;0.6545366;0.6548362;0.6551607;0.6556097;0.6561158;0.6566684;0.6573219;0.6580528;0.6588752;0.6597847;0.6607859;0.661838;0.6630139;0.664349;0.6658083;0.6674677;0.6693195;0.6713333;0.67351;0.6758492;0.6783376;0.6809998;0.6839409;0.6871829;0.6906649;0.6944453;0.6985409;0.7028948;0.7075395;0.712499;0.7178532;0.7235097;0.7295888;0.7361409;0.742995;0.7502625;0.7580354;0.7661781;0.7748298;0.7839067;0.7935345;0.8035003;0.8139413;0.8248794;0.8363524;0.8482954;0.8605186;0.8731769;0.8859457;0.8990412;0.9119606;0.9249731;0.9381043;0.951223;0.9643245;0.9771838;0.9897126;1.0019495;1.0136777;1.0249782;1.0359219;1.0465316;1.0562429;1.0652913;1.0737407;1.0815052;1.0886149;1.0950985;1.1010364;1.1063958;1.1111567;1.1154391;1.1190405;1.122371;1.125545;1.1281929;1.1308229;1.1331953;1.1348715;1.1364615;1.1377912;1.138921;1.139946;1.1408356;1.1415714;1.1424582;1.1431924;1.1439414;1.1449434;1.1455696;1.1460015;1.1463293;1.1466815;1.1471249;1.1477349;1.1481003;1.1485585;1.1486458;1.1485542;1.1485956;1.1486586;1.1487355;1.1486826;1.1484704;1.1482042;1.1476676;1.1473539;1.1470284;1.1468506;1.1468732;1.1470296;1.1469115;1.1467446;1.1464818;1.1460078;1.1456861;1.1455824;1.145232;1.1448338;1.1443521;1.1438563;1.1429796;1.1421558;1.1413009;1.1405845;1.140103;1.1394402;1.1388739;1.1381979;1.1371609;1.1364585;1.1360523;1.1354679;1.1348526;1.1345274;1.1338586;1.1328697;1.1318895;1.1306654;1.1296734;1.1287428;1.1277267;1.1267303;1.1257547;1.1247318;1.1236749;1.122676;1.1218346;1.1208767;1.1198202;1.1188042;1.1178952;1.11672;1.1153817;1.1141394;1.1127125;1.1114333;1.1104172;1.1091286;1.1076822;1.1062713;1.104907;1.1034633;1.1020821;1.1008911;1.0994468;1.0977801;1.0962579;1.0947787;1.0932273;1.0916357;1.0900885;1.0885174;1.0868477;1.0853752;1.084152;1.0826466;1.081058;1.0795242;1.0778698;1.0762686;1.0747513;1.0732138;1.0716676;1.0700693;1.0684489;1.0668985;1.065243;1.06343;1.0618057;1.0601912;1.0586869;1.0574074;1.0559171;1.0543977;1.0528606;1.0511446;1.0495566;1.0480175;1.0465373;1.0451052;1.0437856;1.042293;1.0407652;1.039263;1.0376199;1.0361338;1.0347867;1.0333831;1.0320487;1.0306166;1.029108;1.0276414;1.0261667;1.0245616;1.0232693;1.0220964;1.0209887;1.0202242;1.0190629;1.0178143;1.0164876;1.0148174;1.0134145;1.0122237;1.0108286;1.0094755;1.0080127;1.0064454;1.0046523;1.0030072;1.001402;0.9996938;0.9979913;0.9961788;0.9942064;0.992342;0.9904675;0.9885805;0.9867526;0.984867;0.9829601;0.9810012;0.9790051;0.9769563;0.9749572;0.9728723;0.9709451;0.9691833;0.9672667;0.9652746;0.9634165;0.9615956;0.9597121;0.957848;0.9560618;0.9541731;0.9524115;0.9507958;0.9492719;0.9477135;0.9462349;0.9445911;0.9428973;0.9412169;0.9393381;0.9376974;0.9362271;0.9346794;0.9331903;0.9316966;0.9301662;0.9286746;0.9271919;0.9257875;0.9243627;0.9229429;0.9215121;0.920063;0.9186859;0.917296;0.9159914;0.9147842;0.9135845;0.9124314;0.91128;0.9101532;0.9090386;0.9079214;0.9068387;0.9057667;0.9047643;0.9037573;0.9027535;0.9018322;0.9010004;0.9000732;0.8991721;0.8982202;0.8971289;0.8961878;0.8953257;0.8944532;0.8937004;0.8928482;0.8918232;0.8909635;0.8901927;0.889333;0.8886039;0.8882061;0.8876433;0.8871;0.8865682;0.8860031;0.8855338;0.8851483;0.8847174;0.8842996;0.8839186;0.8835143;0.8831714;0.8830189;0.882669;0.8821797;0.8817794;0.8813125;0.8808095;0.8803508;0.8799422;0.8795423;0.8790292;0.8787845;0.8788058;0.8786238;0.878513;0.8783179;0.8779538;0.8776666;0.8775876;0.8771929;0.8765531;0.8760039;0.8752308;0.8746135;0.8741232;0.8737067;0.8732473;0.8726441;0.8721205;0.8715709;0.8710705;0.870651;0.8701429;0.8696138;0.8690481;0.8684474;0.8677875;0.8670649;0.8663863;0.8656684;0.8649524;0.8642426;0.8635678;0.8628636;0.8621951;0.8616861;0.8610722;0.8604566;0.8598859;0.8593735;0.8588867;0.8584288;0.8580679;0.8576414;0.857139;0.8567669;0.8564806;0.8561515;0.8558661;0.8555799;0.8551684;0.8549526;0.855011;0.8548567;0.8546838;0.8544937;0.8541887;0.8537931;0.8535812;0.8535727;0.8535435;0.8536209;0.8537521;0.8539776;0.8541358;0.8542621;0.8546005;0.8549923;0.8554718;0.8562527;0.8568138;0.85721;0.8578051;0.8583492;0.8590736;0.8599963;0.860954;0.8619656;0.8631593;0.8645462;0.8659042;0.8674012;0.8689063;0.8704693;0.8719315;0.8735021;0.8749781;0.8766477;0.878356;0.8801472;0.8821349;0.8840244;0.8858975;0.8877959;0.8896978;0.8916395;0.8935379;0.8955835;0.8977054;0.8999282;0.9023485;0.9046816;0.9071655;0.9094566;0.9115146;0.9137342;0.915975;0.9181539;0.9203975;0.922646;0.9248761;0.9270013;0.9291392;0.9312349;0.9330291;0.9348176;0.9366656;0.9386279;0.9406283;0.9427049;0.9448647;0.9471445;0.9493044;0.9515489;0.9537024;0.9557589;0.9577931;0.9596936;0.9618439;0.9640319;0.9662872;0.9687705;0.9712211;0.9735839;0.9761252;0.978759;0.9815549;0.9845683;0.9875535;0.9907373;0.9938359;0.9971782;0.9999964;1.0025314;1.0049495;1.0069864;1.0088558;1.0112009;1.0124103;1.0127442;1.0126348;1.0119059;1.0109514;1.010026;1.0091811;1.0079203;1.0061727;1.0048414;1.0034059;1.0022814;1.0012139;1.0007648;1.0006815;1.0007137;1.0012561;1.001847;1.0025103;1.0034088;1.0047504;1.0059631;1.0072107;1.0085136;1.0098047;1.0113596;1.0129707;1.0148915;1.0173155;1.0195099;1.0216805;1.0240859;1.0267376;1.0290978;1.0316602;1.0339316;1.0357522;1.0376116;1.0394565;1.0411536;1.0428513;1.0441352;1.045295;1.0460074;1.04593;1.0460614;1.0457196;1.0458014;1.0460372;1.0465238;1.0475619;1.0483721;1.0494194;1.0501947;1.0504858;1.0510589;1.0513924;1.0521755;1.0535972;1.0548567;1.0560884;1.057723;1.0584114;1.0584065;1.0591147;1.0595951;1.0604233;1.0618441;1.0628257;1.0636852;1.0643126;1.0647218;1.0655187;1.0662217;1.0669928;1.0682276;1.0689559;1.0689135;1.0701772;1.0722202;1.0735735;1.0754459;1.0766662;1.0768429;1.0779737;1.0793124;1.0812278;1.0841675;1.0856742;1.0869851;1.0882518;1.0884919;1.0892072;1.0906307;1.0912054;1.0911595;1.0910046;1.0900234;1.0905429;1.0913913;1.0923848;1.0947937;1.0961815;1.0967667;1.0980157;1.0996637;1.1009266;1.1018341;1.103577;1.1060363;1.1072569;1.1085548;1.1093303;1.1084287;1.1091894;1.1112838;1.1119597;1.1122755;1.1126591;1.1116871;1.1126034;1.1144747;1.1170809;1.1220942;1.1239423;1.1251054;1.1255279;1.1227345;1.1227934;1.1242321;1.1256483;1.1286719;1.1292537;1.1284041;1.1291906;1.1293944;1.1298202;1.1321087;1.1319213;1.1292462;1.1293402;1.1297996;1.1313689;1.1352123;1.1359129;1.1346686;1.137484;1.1419723;1.143067;1.1459341;1.1462203;1.140909;1.1403277;1.1423953;1.143823;1.1460632;1.1487699;1.1507918;1.1511731;1.1505508;1.1499529;1.1495054;1.151408;1.1533116;1.1546282;1.1564996;1.1522053;1.1479017;1.1470242;1.1457238;1.1502142;1.1539949;1.1547426;1.1552128;1.152841;1.1514069;1.1481651;1.1476547;1.1495796;1.1515765;1.1565678;1.1610363;1.1671093;1.1683569;1.1667624;1.166103;1.1586137;1.1587602;1.1658036;1.1696845;1.1762878;1.1801239;1.181935;1.1832913
1.2364043;1.2870435;1.3194901;1.305158;1.1966467;1.2632694;1.4535898;1.3864908;1.2882432;1.2311113;1.2274479;1.2733917;1.1986688;1.201542;1.3549839;1.2901167;1.2087038;1.1818957;1.2089241;1.2071983;1.1892961;1.1785181;1.193399;1.1999556;1.2044601;1.2095127;1.2073064;1.2005374;1.1905921;1.1847501;1.2087499;1.2193319;1.2137552;1.2063413;1.1917048;1.1881117;1.1951638;1.1981459;1.205441;1.2069206;1.1988666;1.1912359;1.2047549;1.2174174;1.2050624;1.1900619;1.1901854;1.19932;1.1988168;1.1973561;1.1888559;1.1780832;1.1833662;1.1888448;1.1934021;1.1972029;1.1938179;1.1889238;1.1871545;1.1906251;1.1902568;1.1932154;1.1968304;1.1886907;1.1846403;1.18604;1.1894406;1.186586;1.1860187;1.1843239;1.17724;1.1754822;1.1799146;1.1832734;1.1741096;1.171765;1.1719214;1.1707553;1.1718808;1.1738311;1.176561;1.1786475;1.1708711;1.1659557;1.1657294;1.1641909;1.1615785;1.1603143;1.1608579;1.1599016;1.1598703;1.1599997;1.1589649;1.1568269;1.1541928;1.153464;1.1571952;1.1554331;1.1548171;1.157047;1.1513493;1.1516039;1.1544029;1.1531457;1.1503749;1.1482825;1.1474131;1.1470784;1.1476009;1.1467229;1.1440759;1.1432132;1.1425653;1.1415341;1.1401349;1.1400334;1.1389199;1.1371624;1.1372185;1.1362056;1.1350733;1.1344209;1.1327555;1.1307441;1.1297024;1.1305039;1.1303774;1.1298339;1.1291503;1.1281469;1.1255991;1.124059;1.124893;1.125002;1.1233454;1.121087;1.1202052;1.1201546;1.1193289;1.1176039;1.1166984;1.1159337;1.1146663;1.1130024;1.1134615;1.1132538;1.1118345;1.1100899;1.1087725;1.1075737;1.1063328;1.1053022;1.1049166;1.1044391;1.1031891;1.1020138;1.10155;1.1012123;1.0997026;1.0988152;1.0983942;1.0980077;1.0972452;1.0969262;1.0966214;1.0955751;1.0936736;1.0931089;1.0937694;1.093196;1.0911769;1.0900055;1.0907282;1.0897875;1.0889788;1.0883602;1.0872604;1.0860445;1.0851971;1.084775;1.0842767;1.0830846;1.0814193;1.0798368;1.0790981;1.0785174;1.0778056;1.0770023;1.076198;1.0750716;1.0736125;1.0724955;1.0717556;1.0711834;1.0704503;1.0692569;1.0683241;1.0676794;1.0665898;1.0656788;1.0647651;1.0636942;1.0628213;1.062355;1.0619141;1.0608921;1.0597706;1.0586785;1.0577285;1.0570539;1.0566779;1.0567774;1.0573087;1.057166;1.0569375;1.0567158;1.0561196;1.0555187;1.0540407;1.0515481;1.0500525;1.0492197;1.0486053;1.0477535;1.0470644;1.0461899;1.0445523;1.0413749;1.0388006;1.0371891;1.0362877;1.0357502;1.0353682;1.0351304;1.0350771;1.0340075;1.0328418;1.0322245;1.031647;1.0315862;1.0316426;1.0312324;1.030705;1.0299439;1.0289279;1.0277663;1.0267645;1.025911;1.0251259;1.0244128;1.0235468;1.0226462;1.0219716;1.0211059;1.0198665;1.018405;1.0173768;1.0161959;1.0149847;1.0139245;1.0123378;1.0108001;1.0095112;1.0082543;1.0069429;1.0056459;1.0044099;1.0031501;1.0016671;1.0002151;0.999191;0.9982452;0.9971984;0.9960001;0.9947497;0.9936128;0.9926019;0.9916713;0.9908171;0.9895976;0.9883041;0.9876915;0.9868625;0.9857157;0.9844201;0.9834598;0.9823079;0.9811984;0.9804816;0.979406;0.978157;0.9769347;0.9758754;0.9748975;0.9740272;0.9731786;0.9718574;0.9704537;0.9692175;0.9682643;0.9672977;0.9664069;0.9655012;0.9641022;0.9630353;0.9620224;0.9606609;0.9595924;0.9585088;0.9574342;0.9566574;0.9557213;0.9545884;0.9533226;0.9520408;0.9506745;0.9494029;0.9484484;0.9477247;0.9467259;0.9454256;0.9443654;0.9434637;0.9422962;0.9407226;0.9396816;0.9386286;0.9374584;0.9363353;0.9354732;0.9345661;0.9334661;0.9323568;0.9310508;0.9297428;0.9286624;0.9277437;0.9267732;0.9256791;0.9245268;0.9237002;0.9226171;0.9211852;0.9205893;0.9195293;0.9179862;0.9164809;0.9157793;0.9148015;0.9134309;0.9124971;0.9114138;0.9100248;0.9084948;0.9075761;0.9063762;0.9049028;0.9035413;0.9024406;0.9011958;0.8997542;0.8984777;0.8971095;0.895681;0.8942759;0.8929759;0.8916936;0.8903142;0.8887988;0.8876733;0.8864976;0.8850247;0.8833474;0.8820446;0.8807108;0.8790792;0.8780754;0.8768868;0.875379;0.8738045;0.8722736;0.870751;0.8692231;0.8677486;0.8663908;0.8650215;0.8635527;0.8621844;0.8606328;0.8590063;0.8575621;0.8558278;0.8542426;0.8528543;0.8511153;0.8495177;0.8481757;0.8469563;0.8452619;0.8438258;0.8426186;0.8412371;0.8398867;0.8382654;0.836514;0.8353441;0.8339542;0.8323396;0.8307543;0.8296661;0.8281634;0.8265516;0.8255605;0.8246058;0.8232949;0.8217415;0.8205507;0.8190252;0.8175678;0.8164636;0.8152546;0.8137738;0.8122633;0.8110371;0.8097324;0.808537;0.807378;0.805957;0.8045098;0.803153;0.8019064;0.8006455;0.7994051;0.7981318;0.7967835;0.7954645;0.7941276;0.7927358;0.7912793;0.7898727;0.7887745;0.7878646;0.7865278;0.7851564;0.7839639;0.7829456;0.7815876;0.7803471;0.779216;0.7779913;0.7766922;0.775438;0.7742295;0.7729623;0.7718459;0.7707393;0.7695594;0.7684477;0.7672551;0.7660794;0.765021;0.7639513;0.762683;0.7613259;0.760128;0.7589406;0.7577814;0.7565328;0.7549626;0.7536542;0.7526475;0.7517551;0.7505861;0.7493224;0.7480711;0.7468527;0.7454575;0.7441316;0.7429044;0.7416924;0.7405594;0.7392787;0.7378936;0.7367436;0.7356804;0.7346464;0.7335127;0.7319939;0.7306243;0.7295581;0.7286894;0.727505;0.7262406;0.7249294;0.7235374;0.7222215;0.7211647;0.7202628;0.719209;0.7182155;0.7170543;0.715737;0.7146787;0.7139083;0.7129521;0.7115857;0.7104137;0.7095131;0.70853;0.7071583;0.7058948;0.7046306;0.7034882;0.7026049;0.7014873;0.7003834;0.6993149;0.6980778;0.6968087;0.6956442;0.6946065;0.6935679;0.6923813;0.6912434;0.6902639;0.6892357;0.6880939;0.6868393;0.6855531;0.6844677;0.6833515;0.6822525;0.6812448;0.6799437;0.6787421;0.6776749;0.676533;0.6753129;0.6741645;0.673123;0.6720948;0.6710672;0.6699966;0.6689376;0.6680606;0.6672039;0.6660978;0.6647261;0.6635115;0.6625397;0.6618435;0.661253;0.6602102;0.6591862;0.6582258;0.6572445;0.6561636;0.6553836;0.6547658;0.6540133;0.6532533;0.6522288;0.6510026;0.6497968;0.6486264;0.6475824;0.6467096;0.6459714;0.6451101;0.6440286;0.6429215;0.6421405;0.6414523;0.6405579;0.6395866;0.6389948;0.6378947;0.6367341;0.6357796;0.6348574;0.6341747;0.6334608;0.6325861;0.6317264;0.6308327;0.6299441;0.6290672;0.628138;0.6271654;0.6262094;0.6254017;0.6249562;0.6241705;0.6233289;0.622621;0.6215761;0.6210146;0.6205605;0.6198379;0.6191378;0.6185171;0.6179052;0.6172643;0.616712;0.6162941;0.6158708;0.615351;0.6148753;0.6146071;0.6142081;0.6134539;0.6127239;0.6115552;0.6107482;0.6106874;0.610089;0.6091608;0.6083921;0.6079475;0.6070861;0.6066657;0.6059958;0.6046885;0.6037824;0.6030032;0.6023694;0.6017195;0.6005304;0.599759;0.5986762;0.597184;0.596781;0.5960808;0.595256;0.5945221;0.5936703;0.5928796;0.5919844;0.5907932;0.5892681;0.5885095;0.5878355;0.586851;0.5858627;0.585332;0.5843248;0.5829133;0.582072;0.580973;0.5802509;0.5795156;0.5785182;0.5776494;0.5768661;0.5760706;0.5752362;0.5743495;0.5735337;0.5727444;0.5719394;0.5711973;0.5703493;0.569418;0.5685312;0.5675462;0.5667002;0.5659733;0.5652009;0.5644488;0.5637538;0.5629673;0.5621783;0.5614053;0.5606328;0.5598564;0.5590962;0.5583172;0.557517;0.5567313;0.5559177;0.5551587;0.5544289;0.5537417;0.5529783;0.5521603;0.5514404;0.5507112;0.5499567;0.5492959;0.548522;0.5475935;0.5468088;0.5460986;0.5453353;0.5446516;0.5438371;0.5429064;0.5419782;0.5411678;0.5404394;0.539725;0.5390787;0.5383381;0.5374707;0.536728;0.5360507;0.5353405;0.5346954;0.5339915;0.5332001;0.5324973;0.5318494;0.5311157;0.530479;0.5298564;0.5290886;0.528362;0.5276244;0.5268701;0.5262517;0.5256534;0.5250443;0.5245024;0.5239026;0.5232477;0.5226333;0.5220246;0.5214069;0.5208608;0.5202909;0.5197327;0.5191784;0.5185806;0.5180651;0.5175896;0.5171154;0.5166226;0.5160882;0.5155933;0.5150973;0.5146193;0.5141702;0.5137213;0.5132745;0.5127815;0.5122755;0.5118352;0.5113863;0.5109782;0.5106012;0.510152;0.5096896;0.5092288;0.5087991;0.5084534;0.5081298;0.5077842;0.507443;0.507093;0.5067287;0.5063187;0.5058835;0.5054697;0.5050614;0.5047101;0.5044121;0.5040872;0.5037704;0.5034767;0.5031872;0.5029513;0.5027241;0.5024638;0.5022667;0.502106;0.5019702;0.5018915;0.5018985;0.5018998;0.5019731;0.5021147;0.5022571;0.5024868;0.5028381;0.5032482;0.5037796;0.5044513;0.5050799;0.5057377;0.506418;0.5071555;0.5079132;0.5087295;0.5096257;0.5105134;0.5113877;0.5122495;0.5131114;0.513927;0.5147165;0.5154729;0.5161248;0.5167417;0.5172971;0.5177905;0.5182149;0.5185922;0.5188742;0.5190418;0.5192062;0.5193264;0.5194011;0.5194462;0.5194464;0.5193371;0.5192683;0.5191703;0.5190151;0.5189606;0.5188501;0.5186924;0.5185437;0.5183636;0.5181096;0.5179209;0.5177521;0.5175819;0.5174314;0.5172709;0.5170665;0.5169386;0.5168558;0.5167666;0.5167443;0.516753;0.5166575;0.516557;0.5164621;0.5163307;0.5162115;0.5161381;0.5159905;0.5158123;0.5155969;0.5153333;0.51507;0.514752;0.514473;0.5142302;0.513953;0.5136788;0.5133793;0.5130453;0.5126875;0.5123817;0.5120434;0.5116799;0.511304;0.5108972;0.5104611;0.5099786;0.5094947;0.5089282;0.5082905;0.5076238;0.506894;0.5061576;0.5054005;0.5045933;0.5037172;0.5028743;0.5020086;0.5011516;0.5002769;0.49943;0.4985661;0.4976442;0.4968145;0.4960223;0.4952566;0.4945404;0.4938152;0.4930966;0.4924172;0.4917554;0.4911159;0.4905192;0.4899202;0.4893217;0.4887476;0.4881937;0.487657;0.4871465;0.4866473;0.4861263;0.4855818;0.4850846;0.4845846;0.4841041;0.4836667;0.4832184;0.4827537;0.4823215;0.4819091;0.4815108;0.4811375;0.4807574;0.4803872;0.4800256;0.4796505;0.4793044;0.478982;0.4786694;0.4783669;0.4780848;0.4778271;0.4775982;0.4773494;0.4771089;0.4768853;0.4766469;0.4764475;0.476289;0.4761243;0.4759837;0.4758179;0.475641;0.4754816;0.4752868;0.4751532;0.4750782;0.4749855;0.4749206;0.4748462;0.4747344;0.4746692;0.47463;0.4746;0.4746003;0.4746327;0.4746792;0.4747347;0.4748324;0.4749606;0.4751137;0.4753023;0.475502;0.4757288;0.4759597;0.4762038;0.4764638;0.4767143;0.4770197;0.4773504;0.4777173;0.4781316;0.4785658;0.4790045;0.4795048;0.4800471;0.4806304;0.4812455;0.4819097;0.4826018;0.4833147;0.4840776;0.4848838;0.4857324;0.4866352;0.4875374;0.488455;0.4894305;0.4904101;0.4914685;0.4926221;0.493775;0.494974;0.4961778;0.4973965;0.4986362;0.4998876;0.5011736;0.5024897;0.5038295;0.5051864;0.5065478;0.5079675;0.5093856;0.5108049;0.5122606;0.5136904;0.5151094;0.5165173;0.5179179;0.5193253;0.5207334;0.5221151;0.5234889;0.5248739;0.5262366;0.5276113;0.5290071;0.5304009;0.5317801;0.5331761;0.5345821;0.5360107;0.5374384;0.5388967;0.5403857;0.5419186;0.5435321;0.5452288;0.5470048;0.5489048;0.5509538;0.553094;0.55543;0.5578946;0.5606138;0.563503;0.5666339;0.5699775;0.5736145;0.5775041;0.5816697;0.5860531;0.5909035;0.5961338;0.6016925;0.6076726;0.6140932;0.6209588;0.6281496;0.6358386;0.643881;0.6523516;0.661046;0.6700491;0.679483;0.689107;0.6989709;0.7089661;0.7190695;0.7292183;0.7394558;0.7495117;0.7596915;0.7696024;0.7793524;0.788777;0.7979981;0.8069143;0.8154491;0.8235905;0.8314037;0.838874;0.8458164;0.852455;0.8587622;0.8646585;0.87002;0.8750892;0.8797366;0.884123;0.8881284;0.8918253;0.8952684;0.8983906;0.9012719;0.9039102;0.9063024;0.9085528;0.9106439;0.9125486;0.9143388;0.9159347;0.9173615;0.9186916;0.9198996;0.9210016;0.9219531;0.9227505;0.9234779;0.9240816;0.924601;0.9250332;0.9253674;0.9255437;0.9257341;0.9258952;0.9259698;0.925967;0.9259527;0.9258789;0.9257767;0.9256545;0.9255073;0.9253247;0.9250853;0.9248034;0.9245252;0.9241619;0.9237276;0.9233041;0.922814;0.9222376;0.9215674;0.920817;0.920037;0.9191597;0.9182274;0.9172303;0.9160753;0.9148417;0.9135273;0.9120436;0.9104365;0.9087509;0.9069589;0.9050866;0.9031155;0.9010739;0.8989229;0.896758;0.8945566;0.8922856;0.8899456;0.8875884;0.8851762;0.8827219;0.8802283;0.8777342;0.8752139;0.8726524;0.8700644;0.8674802;0.8648687;0.8622296;0.8595757;0.85692;0.85421;0.851532;0.8489033;0.8462574;0.8436406;0.8409347;0.8382027;0.8354284;0.8326458;0.829892;0.8271076;0.8243877;0.8217068;0.8189718;0.8163118;0.8136127;0.8108672;0.8081885;0.8054701;0.8028249;0.8002236;0.7975292;0.7948186;0.7920958;0.7894036;0.7867565;0.7841139;0.7815434;0.778942;0.776324;0.7736952;0.7710514;0.7684512;0.7658396;0.7632789;0.760808;0.7582797;0.7557183;0.7531819;0.750608;0.7481221;0.7457113;0.7432733;0.7408534;0.7384793;0.7361125;0.7337369;0.7314019;0.729055;0.7266874;0.7243356;0.7219982;0.7196934;0.7173918;0.7151073;0.71281;0.710602;0.708456;0.7063031;0.7042186;0.7021466;0.7000516;0.6979845;0.6959368;0.6939412;0.6919847;0.6900365;0.6881128;0.6862534;0.6844265;0.6826004;0.680878;0.679159;0.677406;0.675713;0.673987;0.6723046;0.6707032;0.6690558;0.6674401;0.6658708;0.6642967;0.6627235;0.6611621;0.6596465;0.6581835;0.6567414;0.6553304;0.6539136;0.6524675;0.6510431;0.6496139;0.6482339;0.6468961;0.64552;0.644166;0.6428081;0.6414555;0.6401436;0.6388357;0.6375879;0.6363609;0.6351155;0.6339035;0.6326963;0.6314972;0.6303181;0.6291523;0.6280245;0.6269271;0.6258458;0.624818;0.6238246;0.6228288;0.621828;0.620802;0.619794;0.6188036;0.617807;0.6168538;0.615922;0.6150074;0.6141362;0.6132634;0.6123956;0.6115152;0.6106406;0.6097995;0.6089715;0.6081638;0.6073887;0.6066115;0.6058543;0.6050979;0.6043357;0.6036063;0.6028748;0.6021997;0.6015845;0.6009354;0.6003079;0.5996701;0.5990121;0.5983645;0.597724;0.5971028;0.596471;0.5958902;0.5953418;0.5948141;0.5943283;0.5938226;0.5933187;0.5928525;0.5923752;0.5919606;0.591606;0.5912592;0.5909392;0.5906416;0.5903625;0.5901276;0.589921;0.5897827;0.5896537;0.5895475;0.5894811;0.5894256;0.5894178;0.5894498;0.5895336;0.5896355;0.5897896;0.5899664;0.590128;0.5903743;0.5906358;0.590922;0.5912883;0.5917105;0.5921819;0.5926745;0.5932401;0.5938658;0.5945337;0.595267;0.5960632;0.5969379;0.5978367;0.5988368;0.5999689;0.6011172;0.6023364;0.6036511;0.6050105;0.6064788;0.6079139;0.6093955;0.6108551;0.6123165;0.6137305;0.6151308;0.6164896;0.6177765;0.6190564;0.6202796;0.6215501;0.6228102;0.6241065;0.6254476;0.626794;0.6281561;0.6295314;0.6308945;0.6323333;0.6338285;0.6353245;0.6368868;0.6384287;0.6399729;0.6414935;0.6429942;0.6445317;0.6460955;0.6476004;0.64911;0.650601;0.6520587;0.653457;0.6549125;0.6561636;0.6572798;0.6582961;0.6591741;0.6599793;0.6607351;0.6612569;0.6616436;0.6618484;0.6618081;0.6617211;0.6615102;0.6611965;0.6606966;0.6603156;0.6598445;0.6595285;0.6592682;0.6591758;0.6591622;0.6593151;0.6596216;0.6601032;0.660736;0.6615166;0.6624385;0.6634089;0.6645073;0.6658041;0.6671081;0.6685207;0.6699403;0.6714498;0.6728671;0.6742615;0.6756453;0.6769915;0.6782727;0.6796288;0.68075;0.6816741;0.6825638;0.6833112;0.6840034;0.6846786;0.6851837;0.6854965;0.6858351;0.6860704;0.6863129;0.6865444;0.6867672;0.6869186;0.6871563;0.6874439;0.6876976;0.6879703;0.6882576;0.6885493;0.6888006;0.6890607;0.6892991;0.6895052;0.6897292;0.6899661;0.6902537;0.6905773;0.6908935;0.6911543;0.6912928;0.6914595;0.6916816;0.6918019;0.6918662;0.6918881;0.6917698;0.6917511;0.6917939;0.6917639;0.691726;0.7080284;0.7080923;0.7079899;0.707774;0.7076009;0.7073799;0.7071475;0.7070318;0.706727;0.7063281;0.7058132;0.7053243;0.7046806;0.704176;0.7036901;0.7032627;0.7028597;0.7025179;0.7022293;0.7019609;0.7018054;0.7017322;0.7016759;0.7016787;0.7017468;0.7018006;0.7019799;0.702274;0.7026276;0.7029402;0.7034629;0.7039866;0.7045546;0.705169;0.7058226;0.7065824;0.707335;0.7082866;0.7094241;0.7105504;0.7118081;0.7132711;0.7149135;0.7166853;0.7186844;0.7209036;0.7232874;0.7258217;0.7285643;0.7316235;0.7348169;0.7381889;0.7418573;0.7458519;0.7500921;0.7546883;0.7596416;0.7649714;0.7707573;0.776622;0.7829383;0.789659;0.7966223;0.8041111;0.8119708;0.8203691;0.8290733;0.8382559;0.8477473;0.8576838;0.8681592;0.8789977;0.8903619;0.901939;0.9136016;0.9254711;0.9376576;0.9495767;0.9615147;0.9736569;0.9854787;0.9971803;1.0088769;1.0202081;1.0312586;1.0419171;1.052184;1.0620437;1.0716505;1.0806836;1.0893419;1.0974537;1.1048552;1.1118014;1.1182046;1.124181;1.1298372;1.1349422;1.1396173;1.1437643;1.1474625;1.1508139;1.1540142;1.1568755;1.159668;1.1622112;1.1642064;1.1659166;1.1671599;1.1684299;1.1694151;1.1705717;1.1715605;1.17268;1.1738788;1.1747713;1.1756825;1.176661;1.1774019;1.1781096;1.1786587;1.1790345;1.1793756;1.1796665;1.1797334;1.1797397;1.1797261;1.1795385;1.1794006;1.1794192;1.1793939;1.1792459;1.1791344;1.1788719;1.1784284;1.1778953;1.1775014;1.1770506;1.1767159;1.1763936;1.175976;1.1754502;1.1749502;1.1744076;1.1738827;1.1734461;1.1728032;1.1720768;1.1712246;1.1702405;1.1693554;1.1684446;1.1674508;1.1666058;1.1658677;1.1650105;1.1642793;1.1633508;1.1622458;1.1612072;1.1600764;1.1589649;1.1581661;1.1569711;1.1558446;1.154708;1.1536684;1.1525939;1.1515298;1.1507169;1.1495776;1.1482332;1.146824;1.1453869;1.1440197;1.142711;1.1415303;1.1401973;1.1387385;1.1374854;1.1362765;1.1350075;1.1339655;1.1326836;1.1311289;1.1297048;1.1281639;1.126824;1.1255602;1.1244296;1.123225;1.1221683;1.1208845;1.1195107;1.1181085;1.1165354;1.1150713;1.1135436;1.1120975;1.110662;1.1094612;1.1080979;1.1068264;1.1052957;1.1035496;1.101974;1.1002209;1.0987293;1.0975286;1.0961564;1.0947767;1.0934358;1.0920746;1.0907315;1.089318;1.087935;1.0864745;1.0848646;1.0833886;1.0819497;1.0805302;1.0791689;1.0777789;1.0763896;1.0750091;1.0735519;1.0722198;1.0709494;1.0697833;1.0684832;1.0672063;1.0659176;1.064454;1.0632122;1.0622026;1.0610139;1.05988;1.0586264;1.057091;1.0557815;1.0545394;1.0533032;1.0521957;1.0513129;1.0502373;1.0491865;1.0480171;1.0467509;1.045472;1.0440477;1.0427585;1.0415143;1.0402579;1.039188;1.0379142;1.0365452;1.0350617;1.0336038;1.032005;1.0305215;1.029179;1.0276145;1.0259172;1.0243047;1.0226284;1.0209399;1.0192981;1.0176386;1.0159087;1.0141909;1.0124831;1.0108346;1.0091202;1.0073618;1.0056044;1.0037851;1.0020746;1.0004054;0.998723;0.997124;0.9954844;0.9936681;0.9920927;0.9906368;0.989225;0.988011;0.9868118;0.9854705;0.9840917;0.9826635;0.9811004;0.9796436;0.9781709;0.9767801;0.9754819;0.9741303;0.9728398;0.971463;0.9699014;0.9685357;0.9672698;0.9659995;0.9646959;0.9634814;0.9622104;0.9608887;0.9595333;0.9581559;0.9568717;0.9554763;0.954248;0.9532344;0.9521315;0.9509136;0.9499152;0.9490929;0.9482116;0.9474484;0.9467204;0.9458681;0.9449084;0.9439934;0.9430634;0.9421383;0.9412026;0.9402486;0.9392535;0.9383211;0.937363;0.9364815;0.9356722;0.9348834;0.934168;0.9334226;0.9325464;0.9319566;0.9314119;0.9307826;0.9301941;0.9296339;0.9291883;0.9287229;0.9283702;0.9283083;0.9279974;0.927645;0.9272187;0.9265841;0.9261057;0.9255078;0.9251475;0.9250857;0.924946;0.924554;0.9242986;0.9239501;0.9233524;0.9229621;0.9227212;0.9224422;0.9221727;0.9218601;0.9215193;0.9212777;0.9210813;0.9207988;0.9206733;0.9203441;0.9197569;0.919286;0.9188094;0.9183075;0.9178795;0.9172467;0.9167904;0.9163883;0.9158603;0.9153563;0.9148302;0.9141599;0.9135914;0.9131166;0.9125993;0.9120933;0.9114966;0.9108618;0.9102591;0.9095587;0.9089174;0.9083735;0.9077673;0.9070573;0.9064708;0.9059863;0.9054767;0.9049401;0.9044962;0.9040201;0.9034994;0.9029613;0.9024229;0.9019441;0.9013836;0.9010196;0.9008806;0.9005786;0.9002006;0.8999774;0.8999056;0.8996385;0.8993917;0.8990939;0.8983577;0.8980655;0.8980813;0.898159;0.8980531;0.898109;0.8980556;0.8979346;0.8980088;0.8983039;0.898543;0.8987973;0.8990654;0.8994033;0.8997361;0.9000314;0.9004352;0.9009042;0.9014271;0.9019505;0.9026214;0.9033951;0.9042641;0.9053196;0.9063257;0.9073241;0.9084523;0.9096709;0.9108928;0.9121076;0.9135829;0.9149735;0.9164083;0.9179043;0.9195057;0.9210473;0.9225674;0.9242349;0.9259509;0.9277345;0.9297038;0.9314831;0.9331782;0.9350057;0.9368206;0.9386656;0.9405347;0.9425709;0.9447398;0.9467906;0.9490938;0.9510958;0.9527916;0.9545628;0.9561641;0.9579122;0.9597845;0.9615508;0.9633861;0.9650952;0.9667333;0.9684571;0.9701512;0.9717719;0.9733828;0.9748976;0.9764637;0.9780704;0.9796147;0.9809875;0.9827393;0.984619;0.9865656;0.9889759;0.9909001;0.9925012;0.9943556;0.9960263;0.9979731;1.0003144;1.0024246;1.004485;1.0066365;1.0087341;1.0109071;1.0131586;1.0154546;1.0179006;1.0201939;1.0225185;1.02478;1.0272331;1.0290703;1.0307832;1.0319594;1.0323935;1.0325141;1.0323952;1.0319586;1.0314128;1.0305814;1.029734;1.0286595;1.0277598;1.0266328;1.0260838;1.0259227;1.0255659;1.0253897;1.0252928;1.0248333;1.0252595;1.0265106;1.0273062;1.0285338;1.0292802;1.0290719;1.0302233;1.032191;1.0336622;1.0358431;1.0374856;1.0379531;1.0396634;1.0422201;1.0444673;1.0473211;1.0497396;1.0521075;1.0539144;1.0550146;1.0565823;1.0579877;1.0592644;1.0610338;1.0623052;1.0631254;1.0636404;1.0635023;1.063835;1.0641356;1.0643104;1.0645055;1.0650966;1.0658315;1.0663829;1.0675039;1.0682679;1.0681559;1.0685678;1.0693178;1.0700231;1.071051;1.0719885;1.0726986;1.0732222;1.0737569;1.0739537;1.0749539;1.0763988;1.0773405;1.0786754;1.0793736;1.0791478;1.080016;1.081436;1.0822179;1.0830141;1.0840926;1.0849283;1.0858337;1.0872698;1.0883304;1.0887905;1.0897998;1.0914171;1.092303;1.092715;1.0936669;1.0945302;1.0955193;1.0971001;1.098081;1.0988944;1.0991637;1.0984333;1.0992746;1.1003437;1.1016781;1.1048067;1.1060035;1.1059657;1.1064872;1.1061387;1.1071925;1.1096452;1.1104767;1.1109647;1.1118304;1.1118884;1.1123245;1.1137112;1.1145313;1.1138421;1.1153052;1.1184815;1.1206203;1.1239809;1.1254911;1.1249316;1.125893;1.1272186;1.1277299;1.1287415;1.128791;1.1264979;1.1271865;1.1293228;1.130811;1.1342558;1.13525;1.1337901;1.1348922;1.1369313;1.1377792;1.1394501;1.1401354;1.1383567;1.1390643;1.1412956;1.1430926;1.1464405;1.1471767;1.1458498;1.1463813;1.1462992;1.1471089;1.1490755;1.1527423;1.1577179;1.1599294;1.1638635;1.1644499;1.1601534;1.1600406;1.161003;1.1620146;1.1642523;1.1639534;1.1637328;1.1632572;1.1655389;1.1701647;1.1734263;1.1731541;1.1727673;1.1721841;1.1706338;1.1718372;1.1735353;1.1746703;1.176903;1.1776059;1.1783344;1.1814331;1.1825274;1.1883581;1.1890923;1.1802754;1.1797879;1.1817001;1.1838728;1.1956391;1.2010981;1.1991591;1.2008815;1.2047334;1.2050853;1.2063458;1.2040067;1.1937188;1.1884288;1.1827261;1.1815871;1.1878841;1.1878048;1.187281;1.185583
0.7050296;0.7103543;0.696898;0.69503;0.6887267;0.6859329;0.6851024;0.6797062;0.6698961;0.6850411;0.7079166;0.671701;0.6654096;0.6812067;0.6957858;0.6834552;0.6755495;0.6755537;0.6776676;0.6784523;0.6770918;0.6740954;0.6712646;0.6766861;0.6790104;0.6747168;0.6717743;0.6766475;0.6781044;0.6708454;0.6722569;0.6775028;0.6801641;0.6759242;0.6745901;0.673846;0.6727382;0.6722661;0.6774892;0.6796172;0.6755452;0.6752742;0.6776029;0.67919;0.6771467;0.6726599;0.6728778;0.6762367;0.6763092;0.6740932;0.6716681;0.6707079;0.6721284;0.6721953;0.6715593;0.6714295;0.671444;0.6718372;0.672403;0.6728256;0.6734924;0.6736934;0.6739118;0.6756354;0.6742276;0.6732631;0.674535;0.6724374;0.6729742;0.674722;0.6743712;0.6729655;0.6715088;0.670508;0.6700474;0.6707516;0.6709307;0.6698087;0.668759;0.6679256;0.6683909;0.670316;0.6692368;0.6686414;0.6688988;0.6681158;0.6676115;0.6671759;0.6667334;0.6667829;0.6667895;0.6667884;0.6668279;0.6662985;0.6658371;0.665787;0.6661253;0.6653852;0.6651058;0.6657673;0.6654504;0.664785;0.6646604;0.6655111;0.6656986;0.6650497;0.6639941;0.6633542;0.6634778;0.6638737;0.6639856;0.6633394;0.662837;0.6626029;0.6625371;0.6628938;0.6626795;0.6620466;0.662075;0.6622487;0.6621349;0.6616927;0.6617076;0.6615171;0.6610251;0.6604183;0.6601414;0.660228;0.6603968;0.6601153;0.6595832;0.659077;0.6588041;0.658785;0.6586952;0.6583961;0.6579344;0.6578863;0.6577076;0.6573095;0.6572511;0.6571288;0.6567717;0.6562053;0.6558475;0.6556069;0.6554224;0.6552342;0.6548807;0.6545441;0.6543376;0.6542147;0.6539795;0.6538284;0.6538435;0.6531603;0.6526206;0.6524237;0.6522362;0.6518071;0.6515425;0.6515808;0.6513292;0.6509334;0.6506999;0.6508033;0.6503233;0.6499617;0.649924;0.6498298;0.6495246;0.6492047;0.6490771;0.6492177;0.6490404;0.6485715;0.648158;0.6479343;0.6478503;0.6477559;0.6474062;0.6468742;0.6463027;0.6458536;0.6456802;0.6455901;0.6453961;0.6449683;0.6447085;0.6444981;0.644293;0.6444111;0.644201;0.6438238;0.6436744;0.6436535;0.643476;0.6430539;0.6425284;0.6423109;0.642153;0.641834;0.6416669;0.6414189;0.6410341;0.6405904;0.6404038;0.6401355;0.6397852;0.6400042;0.6399293;0.6398391;0.6401609;0.640432;0.6403517;0.6400243;0.6398885;0.6396143;0.63916;0.6386079;0.6381633;0.6380361;0.6379996;0.637697;0.6374671;0.6373001;0.6369346;0.6358251;0.6351629;0.6350113;0.6350811;0.6350774;0.6349698;0.6348505;0.6348591;0.6345826;0.6341715;0.6338235;0.633661;0.6336376;0.6335703;0.6333161;0.6332839;0.6332204;0.6329368;0.6323773;0.6322232;0.6321917;0.6319439;0.6316673;0.6314259;0.6312114;0.6309748;0.6307852;0.6304484;0.6299773;0.6297967;0.6293586;0.628949;0.6289077;0.6284849;0.6280779;0.6277428;0.6271878;0.6266338;0.6263496;0.6263159;0.6257399;0.625297;0.6249961;0.6245514;0.6240228;0.623616;0.6233767;0.6231146;0.6227334;0.6222989;0.6219636;0.6220291;0.6218156;0.6213081;0.6209956;0.6206006;0.6201904;0.619845;0.6195757;0.6192726;0.6189955;0.6187855;0.6181266;0.6176488;0.6175011;0.6172061;0.6167755;0.6165035;0.616491;0.6160268;0.6155128;0.6151121;0.6148282;0.6145633;0.6142852;0.613952;0.6134762;0.6132538;0.6129647;0.6122833;0.6118954;0.6114784;0.6111017;0.6111249;0.6106589;0.6100771;0.6097227;0.6093708;0.6089138;0.6085045;0.6083131;0.607847;0.6073828;0.6071108;0.6070438;0.606801;0.6062818;0.6055821;0.6050978;0.6048005;0.604548;0.6041549;0.6037501;0.6033635;0.6030036;0.60267;0.6021175;0.6015709;0.6012449;0.6006939;0.6004324;0.6003087;0.5997372;0.599603;0.5993308;0.5986776;0.5985045;0.5980059;0.5974534;0.5973055;0.5969973;0.5963667;0.5956558;0.5954223;0.595219;0.5947692;0.5940816;0.5937589;0.5933192;0.592863;0.592627;0.5921198;0.5916201;0.591217;0.5907313;0.5903817;0.589939;0.5892745;0.5887887;0.5883789;0.587969;0.5875207;0.5872163;0.5868809;0.5863745;0.5856448;0.5851185;0.5846908;0.5842364;0.5840244;0.5836581;0.583102;0.5825274;0.5819816;0.5814806;0.5810382;0.5806811;0.5801332;0.5796177;0.5793308;0.5789983;0.5784711;0.5778843;0.5774628;0.5767173;0.5760693;0.5756029;0.5748543;0.5743433;0.5740449;0.573754;0.5731386;0.5727082;0.5724258;0.5719763;0.5714365;0.5707181;0.5699869;0.5697167;0.5692697;0.5685758;0.5678317;0.5676032;0.5671096;0.5664691;0.5661576;0.5659093;0.5654711;0.5648708;0.5644262;0.5638173;0.5631987;0.5627134;0.5622739;0.5617476;0.5611591;0.5606094;0.5601693;0.5598858;0.5595921;0.5589688;0.5582494;0.5576251;0.5571732;0.5567801;0.5563483;0.5558786;0.5553983;0.5548831;0.5542732;0.5536531;0.5531688;0.5525836;0.5521406;0.5518572;0.55138;0.5507835;0.5503734;0.5502146;0.5494938;0.5489356;0.5485809;0.5481548;0.5475508;0.5469442;0.5464046;0.5458872;0.5455499;0.5452583;0.5448622;0.5442728;0.5436759;0.5432333;0.5429823;0.5426193;0.5419928;0.541254;0.5407053;0.5403088;0.5400124;0.5395779;0.5386391;0.5380414;0.5377592;0.5375681;0.5372279;0.5367601;0.5362219;0.5356525;0.5349258;0.534349;0.5338995;0.533391;0.5330126;0.5324132;0.531664;0.5312927;0.5309085;0.5306544;0.5304406;0.5295756;0.5288011;0.5283453;0.5281463;0.527756;0.5273498;0.5268285;0.5260446;0.5253187;0.5247905;0.5244449;0.5241463;0.5238634;0.5234352;0.5228387;0.5222632;0.5219757;0.5216711;0.5211515;0.520798;0.5205548;0.5200861;0.5191789;0.5184305;0.5178481;0.5174955;0.5173462;0.51677;0.5160585;0.5153991;0.5148087;0.5142769;0.5138493;0.5134905;0.5130548;0.5124165;0.5118523;0.5115289;0.511223;0.5107381;0.5101446;0.5095649;0.5089638;0.5084432;0.5080208;0.5076205;0.506941;0.5064284;0.5060614;0.505528;0.5048831;0.5042655;0.503746;0.5033175;0.5030826;0.5026678;0.5020173;0.5015378;0.5011003;0.5006099;0.5000662;0.4996226;0.4991355;0.4987365;0.4984572;0.4979357;0.4974348;0.4968817;0.4962532;0.4960177;0.4958072;0.4955388;0.4952415;0.4949063;0.4943025;0.4935734;0.493014;0.4925665;0.4919721;0.4913251;0.4909039;0.4904659;0.4900395;0.489641;0.4892581;0.4889013;0.4883823;0.487821;0.4875896;0.4871658;0.4866003;0.4860264;0.4855639;0.485266;0.4848666;0.4843185;0.4839332;0.4835419;0.4830892;0.4826162;0.4822657;0.4816637;0.4809651;0.480374;0.4799516;0.4795353;0.4792718;0.4791549;0.4787664;0.4782217;0.4777368;0.477394;0.4769345;0.4767143;0.4765498;0.4762045;0.4756533;0.4755297;0.47534;0.4747353;0.4744236;0.4742634;0.4740881;0.4738023;0.4735327;0.4729096;0.4723652;0.4721652;0.4716874;0.4712436;0.470894;0.470605;0.4702867;0.4700915;0.4697402;0.4690616;0.4683318;0.4680128;0.4677335;0.467187;0.4666361;0.4661222;0.4657026;0.4653495;0.4649121;0.4643582;0.4638453;0.4633837;0.4627384;0.4624619;0.4621021;0.4613743;0.4605057;0.459918;0.4596043;0.4593109;0.4587037;0.4582999;0.4577074;0.4568962;0.4562849;0.4562181;0.4558063;0.4550325;0.4579023;0.4574017;0.4569564;0.4564945;0.4560411;0.4555651;0.4551427;0.4547739;0.4543492;0.4539517;0.4534928;0.4529139;0.4524671;0.4520944;0.4516652;0.4512375;0.4508564;0.4504583;0.4500676;0.4497636;0.4494529;0.4490794;0.4486269;0.4482384;0.4478756;0.4474726;0.4470635;0.4466758;0.4462657;0.445852;0.4454732;0.4450674;0.4446537;0.4442008;0.443718;0.4433206;0.4429315;0.4425457;0.442174;0.4418907;0.4414858;0.441013;0.4405701;0.440071;0.4396281;0.4392392;0.4388216;0.4383383;0.4378655;0.4373996;0.4369307;0.4365668;0.4361786;0.4357759;0.435367;0.4349677;0.4345568;0.4341452;0.4337381;0.4333497;0.4329759;0.4325747;0.4321713;0.4317739;0.4313784;0.4310281;0.4306723;0.430256;0.4298334;0.4293735;0.4289779;0.4286661;0.4282991;0.4279621;0.4275875;0.4271742;0.4267167;0.4263934;0.4260476;0.4257495;0.4254824;0.4251436;0.4248035;0.4244711;0.4241715;0.4238493;0.4235137;0.4232069;0.4229215;0.422589;0.422245;0.4219416;0.4216049;0.4212945;0.4210362;0.4207272;0.4203885;0.4200502;0.4197256;0.4194642;0.4191985;0.4189293;0.4186813;0.4184232;0.4181781;0.41793;0.4176978;0.4174597;0.4172029;0.4169369;0.416694;0.4164579;0.4161872;0.415916;0.4156685;0.4153717;0.4150848;0.4148525;0.4146197;0.4144102;0.4142173;0.4140359;0.413865;0.4136945;0.4135227;0.4134054;0.4133407;0.4132739;0.4132532;0.4132551;0.4132384;0.4132605;0.4133264;0.4134138;0.4135188;0.4136735;0.4138277;0.413989;0.4141623;0.4143669;0.414578;0.414828;0.4151152;0.4154211;0.4157615;0.4160499;0.4163309;0.4166422;0.4168798;0.4170789;0.4173226;0.4175035;0.4176154;0.4177326;0.4178013;0.4177848;0.4177927;0.4178144;0.4177794;0.4177126;0.4176353;0.4175326;0.4174001;0.4172384;0.4170536;0.4168827;0.4167208;0.4165856;0.4164469;0.4163063;0.4161659;0.416012;0.4158767;0.4157096;0.4155075;0.41531;0.4150899;0.4148839;0.4146534;0.4144786;0.4143204;0.414221;0.4141296;0.4140195;0.4138966;0.4137492;0.4135892;0.4134367;0.4132895;0.4131464;0.4129858;0.4128525;0.4126548;0.4123958;0.4121718;0.4119258;0.4116884;0.4114805;0.4112547;0.4110178;0.4107641;0.4105262;0.4102761;0.4100255;0.4097804;0.4095362;0.4093016;0.4090475;0.4088043;0.408511;0.4081881;0.4078532;0.4074856;0.4071153;0.40674;0.4063444;0.4059234;0.4054966;0.405069;0.4046166;0.4041213;0.4036554;0.4032044;0.4027423;0.4022982;0.4018845;0.4014551;0.4010167;0.4005842;0.4001558;0.399743;0.3993113;0.3989303;0.3986062;0.3982445;0.3978837;0.3975365;0.3971534;0.3968237;0.3965589;0.3962684;0.3960032;0.3957157;0.3953847;0.3950508;0.3947622;0.3944817;0.3942117;0.3939889;0.3937355;0.39346;0.3932036;0.3929483;0.3927083;0.3924738;0.3922552;0.3920672;0.3918613;0.3916561;0.3914512;0.3912428;0.3910297;0.3908176;0.3905989;0.3903958;0.3901864;0.3899992;0.3898326;0.3896637;0.3895004;0.3893422;0.3891841;0.3890471;0.3889386;0.3888008;0.3886661;0.3885256;0.3883571;0.3882068;0.388059;0.3879297;0.3878215;0.3877005;0.3875804;0.3874731;0.3873623;0.3872465;0.387171;0.3871331;0.3870707;0.3870132;0.3869655;0.3869046;0.3868776;0.3868752;0.3868795;0.3868957;0.3869259;0.3869723;0.3870245;0.3870938;0.3871617;0.3872188;0.3873084;0.3874116;0.3875284;0.3876757;0.3878261;0.3879699;0.3881443;0.3883345;0.3885444;0.3887539;0.388972;0.3892178;0.3894617;0.3897519;0.3900915;0.3904214;0.3907693;0.3911217;0.3914596;0.3918494;0.392271;0.3927058;0.3931908;0.3936546;0.3941076;0.3945819;0.3950645;0.3955546;0.3960589;0.3965746;0.3970851;0.3975983;0.3981446;0.3986942;0.399234;0.3997771;0.4003319;0.4008914;0.401439;0.4020019;0.4025477;0.4030628;0.4035958;0.4041271;0.4046814;0.4052624;0.4058228;0.4063929;0.4069552;0.407504;0.4080454;0.4085782;0.4091255;0.4096581;0.4102037;0.4107833;0.4113941;0.4120623;0.4127361;0.4134538;0.4142521;0.4151001;0.41599;0.4169636;0.4179909;0.4191078;0.4202824;0.4215733;0.4229583;0.4244398;0.4260149;0.4277022;0.4294494;0.4313946;0.4335066;0.4357229;0.4380842;0.440599;0.4432671;0.4460363;0.4489567;0.4519863;0.4551766;0.4584278;0.4617729;0.4652484;0.4687762;0.4723515;0.4759688;0.4796142;0.483209;0.4867853;0.4902813;0.4937775;0.4971633;0.5004774;0.5036702;0.5067983;0.5097724;0.5126246;0.5152954;0.5177987;0.5202076;0.5224741;0.5245925;0.5265993;0.5284499;0.5300937;0.531643;0.5330772;0.5343971;0.5355832;0.5366619;0.5376254;0.5384865;0.5392651;0.5399779;0.5406536;0.5412672;0.541822;0.5423278;0.5427793;0.5431857;0.5435554;0.5438824;0.5441582;0.5443924;0.5445655;0.5446786;0.5447634;0.5447868;0.544813;0.5448214;0.5447908;0.5447222;0.5446537;0.5445546;0.5444547;0.5443635;0.5442463;0.5441053;0.5439549;0.5437738;0.5436088;0.543452;0.5432784;0.5431063;0.5429267;0.542722;0.5424942;0.54224;0.5419887;0.5417379;0.5414438;0.5411451;0.5408285;0.5404363;0.5400126;0.5395736;0.5391148;0.538633;0.5381132;0.5375872;0.536995;0.5363339;0.5356246;0.5348805;0.5340356;0.53323;0.5324231;0.5316004;0.530763;0.5299185;0.5290627;0.5282015;0.527347;0.5264536;0.5255377;0.5246077;0.5236366;0.5226806;0.5217257;0.5207693;0.5198135;0.5188465;0.5178517;0.5168855;0.515937;0.5149755;0.5140378;0.5130858;0.512121;0.5111343;0.5101479;0.5091563;0.508168;0.5071923;0.5062166;0.5052226;0.5042426;0.5032722;0.5023045;0.5013418;0.5003698;0.4993982;0.4984401;0.4974981;0.4965817;0.4956509;0.4947146;0.4937952;0.4928514;0.4919091;0.4909625;0.4900149;0.4890627;0.4881133;0.487139;0.4861319;0.4851755;0.4842298;0.4832707;0.4823377;0.4814103;0.4804519;0.4795311;0.4786458;0.4777635;0.4768923;0.4760228;0.4751812;0.4743206;0.4734348;0.4725775;0.4717305;0.4708795;0.4700574;0.4691992;0.4683203;0.4674555;0.46656;0.4657007;0.4648602;0.4640204;0.4631985;0.4623857;0.4615839;0.4607938;0.4600162;0.4592348;0.4584321;0.4576743;0.456948;0.4562276;0.4555205;0.4548523;0.4542122;0.4535671;0.4529618;0.4523714;0.4517499;0.4511181;0.4504633;0.4498252;0.449183;0.4485345;0.4479202;0.4472933;0.4466736;0.4460706;0.4454738;0.4449209;0.4443814;0.443855;0.4433605;0.4428498;0.4423526;0.4418734;0.4413581;0.4408396;0.440343;0.439825;0.4392988;0.4387808;0.438236;0.4376799;0.4371554;0.4366574;0.4361447;0.4356347;0.4351104;0.4345767;0.4340989;0.4336297;0.4331777;0.4327668;0.4323565;0.4319543;0.4315895;0.4312389;0.4308585;0.4304816;0.4300883;0.4296657;0.429289;0.4289232;0.4285246;0.4281346;0.4277343;0.4273328;0.4269849;0.4266532;0.4262903;0.4259239;0.4255678;0.4251972;0.4248445;0.424515;0.4241741;0.4238194;0.423501;0.4231972;0.4229081;0.4226418;0.4223719;0.4221114;0.4218561;0.4216094;0.4213619;0.4211164;0.4208767;0.4206474;0.4204012;0.420144;0.4199179;0.4196831;0.4194884;0.4193378;0.4191694;0.4190114;0.4188414;0.4186638;0.4185023;0.4183434;0.418193;0.418053;0.4179263;0.4177993;0.4176857;0.4176068;0.4175349;0.4174788;0.4174421;0.4174127;0.4173927;0.4173957;0.4174191;0.4174493;0.4174807;0.4175154;0.4175777;0.4176641;0.4177826;0.4179311;0.4180776;0.4182262;0.41837;0.4185275;0.4186787;0.4188547;0.4191044;0.4193518;0.4196413;0.4199674;0.4202628;0.4205991;0.4209652;0.4213515;0.4217932;0.4222541;0.4227557;0.4232687;0.4238043;0.4243493;0.4249188;0.4254892;0.4261044;0.4266629;0.4272036;0.4277096;0.4281415;0.4285971;0.4290389;0.4294947;0.4299396;0.4304249;0.430942;0.4314575;0.4320027;0.4325432;0.4330516;0.4336202;0.4342491;0.4348469;0.4354844;0.4360764;0.4366078;0.4371766;0.4377494;0.4383248;0.4389407;0.4394989;0.4400235;0.4405502;0.4410543;0.4415436;0.4420515;0.4424917;0.4428941;0.4432479;0.4435559;0.44382;0.4440284;0.4442145;0.4443663;0.4444725;0.4445453;0.4445686;0.4445392;0.444477;0.444349;0.4442638;0.444155;0.4440697;0.4439972;0.4439616;0.4439164;0.4439637;0.4440729;0.4442276;0.4444353;0.444663;0.4449448;0.4452659;0.4456444;0.4461232;0.4465915;0.4470961;0.4476069;0.4481489;0.4486529;0.4491443;0.4496416;0.4501118;0.4505858;0.4511214;0.451557;0.4519431;0.4522848;0.4525502;0.4528002;0.4530327;0.4532007;0.4533039;0.4533965;0.4534249;0.4534793;0.453519;0.453587;0.4536592;0.4537512;0.453868;0.45399;0.4541358;0.4542508;0.4543582;0.4544797;0.4545881;0.4547235;0.4548593;0.4549792;0.4550815;0.455216;0.4553527;0.4554709;0.4555997;0.4557434;0.4558646;0.456018;0.4560998;0.4561091;0.456117;0.4560611;0.4560581;0.4561161;0.4560948;0.4560423;0.4703712;0.4704321;0.4704292;0.4704508;0.4703621;0.4702156;0.4700377;0.4697886;0.46952;0.4692244;0.4689438;0.4685323;0.4679754;0.4675534;0.4670673;0.4666718;0.4663841;0.4660853;0.4657609;0.4654915;0.4652986;0.4651592;0.4650559;0.4650283;0.4649987;0.4650049;0.4650214;0.4650707;0.4651028;0.4651747;0.4652742;0.4653832;0.4655018;0.465677;0.4658693;0.4660964;0.4663649;0.4666693;0.4669927;0.4673361;0.4677774;0.4683028;0.4688926;0.4695703;0.4703026;0.4711066;0.4719446;0.4728087;0.4737611;0.4748478;0.4759791;0.4772165;0.4785287;0.4799268;0.481355;0.4829499;0.4846504;0.4864858;0.4884956;0.4904975;0.4926385;0.4949872;0.4973377;0.4998665;0.502465;0.5050735;0.5079205;0.5109744;0.5141031;0.517292;0.5207389;0.5242352;0.5278385;0.5316254;0.5354488;0.5393097;0.5432193;0.5471079;0.5509947;0.5550091;0.5590498;0.5630708;0.5670668;0.5709546;0.5747688;0.5784735;0.5820691;0.5855981;0.5890608;0.5923223;0.5954499;0.5984284;0.6012302;0.6038523;0.6063387;0.6086897;0.6108684;0.6128802;0.6147424;0.6164294;0.617932;0.6193078;0.6206231;0.6217643;0.622768;0.6237493;0.6245216;0.6251383;0.6257737;0.6263471;0.6268229;0.6272717;0.6277609;0.6281684;0.6285356;0.628935;0.629229;0.6295502;0.6299224;0.6302068;0.6304361;0.63064;0.6308027;0.6308998;0.6309422;0.630977;0.6309795;0.6308402;0.6306507;0.630477;0.630265;0.6300604;0.6298846;0.6296648;0.6294118;0.6291454;0.6288983;0.6286156;0.6283646;0.6281344;0.6278594;0.6275842;0.6272898;0.6269603;0.6266505;0.6263606;0.6260288;0.6256831;0.6253344;0.6249556;0.6245068;0.6240541;0.6235784;0.6231439;0.6227034;0.6223055;0.6219831;0.6215968;0.6212118;0.620795;0.62035;0.6198828;0.6194;0.6188646;0.6183085;0.6177109;0.6171019;0.6164662;0.6158215;0.6151105;0.6144686;0.6138507;0.613229;0.6126377;0.6121073;0.6115209;0.6109297;0.6103275;0.609714;0.6090965;0.6084524;0.6078321;0.6072124;0.6066025;0.606011;0.6054197;0.6048651;0.6042615;0.6036358;0.602998;0.6023475;0.6016169;0.60099;0.600438;0.5998229;0.599209;0.5986141;0.5979913;0.597371;0.596787;0.5962079;0.5955886;0.59493;0.5942907;0.5936388;0.5929986;0.5923629;0.591715;0.5910591;0.590426;0.5897973;0.5891668;0.5885617;0.5879368;0.5873129;0.5866581;0.5860639;0.5855039;0.5849231;0.5843533;0.5838023;0.5832542;0.5827011;0.5821765;0.5816435;0.5810744;0.5805377;0.5800166;0.5795291;0.5789978;0.5784487;0.5779347;0.5774024;0.5769085;0.5764537;0.576005;0.5755437;0.575138;0.5748034;0.574441;0.5740854;0.5737653;0.5734012;0.5730006;0.5726324;0.5722796;0.5719005;0.5715581;0.5711297;0.5705951;0.5701458;0.5697001;0.569244;0.5688871;0.5684327;0.5679268;0.5673371;0.5667939;0.5662139;0.5656565;0.5651082;0.5645686;0.5640411;0.5634924;0.5629578;0.562403;0.5618303;0.5612336;0.5606174;0.560001;0.5593727;0.5587137;0.5580772;0.5574426;0.5568208;0.5562233;0.555581;0.5548918;0.5542777;0.5536354;0.5530652;0.5526143;0.552118;0.5516546;0.5511533;0.5505996;0.5500678;0.54958;0.5490969;0.5486221;0.5482148;0.547749;0.5472522;0.5467575;0.546235;0.5457469;0.5452427;0.5447794;0.5443664;0.5439492;0.5435953;0.5431645;0.5427254;0.5422795;0.5417977;0.5412501;0.5407705;0.5402763;0.5398417;0.5394418;0.5390737;0.5387661;0.5384423;0.5381075;0.5378382;0.537648;0.5373923;0.5371322;0.5369253;0.5366421;0.5362325;0.535997;0.5358329;0.5356427;0.5355635;0.5353665;0.5350809;0.5348444;0.5345762;0.534332;0.5341288;0.5339035;0.5336664;0.5334432;0.5332351;0.5329833;0.532784;0.5326067;0.5324984;0.5324575;0.5324141;0.5324727;0.5323986;0.5322559;0.5321505;0.5319999;0.5318659;0.5317782;0.5316524;0.531459;0.5313174;0.5312027;0.5310868;0.5309837;0.5308609;0.5307314;0.530563;0.5304628;0.5303751;0.5303323;0.53036;0.530327;0.5302713;0.5302637;0.5302752;0.5302737;0.5303499;0.5303251;0.5302035;0.530112;0.5299768;0.5298743;0.5297958;0.5297267;0.5296492;0.5295596;0.5294235;0.5292413;0.5290928;0.5289167;0.5287597;0.5286304;0.5284871;0.528312;0.5281767;0.528148;0.5279709;0.5277237;0.5274842;0.5271166;0.5268098;0.5264893;0.5262765;0.5261139;0.525972;0.5258163;0.5257128;0.5255926;0.5254076;0.5253014;0.5252827;0.5252026;0.5251241;0.5250386;0.524932;0.5248232;0.5246985;0.5245966;0.5245082;0.5244127;0.5243429;0.5242378;0.5240701;0.5239685;0.5239344;0.5238108;0.5237033;0.5236374;0.5235239;0.5234683;0.5234461;0.5234585;0.5235465;0.5237135;0.523819;0.5239748;0.5241202;0.5241896;0.5243557;0.5246374;0.5248318;0.5249833;0.5251851;0.5253492;0.525584;0.5258676;0.5262083;0.5266458;0.5270402;0.5274722;0.5278882;0.5282525;0.5286405;0.5291209;0.5296008;0.5300156;0.5304257;0.530816;0.5311238;0.5315292;0.5319737;0.5324446;0.53297;0.5334445;0.5338606;0.5344285;0.5350616;0.5356728;0.5364173;0.5370852;0.5377104;0.5383015;0.5389131;0.5394487;0.5398173;0.5403037;0.5408292;0.5413508;0.5419174;0.5424915;0.543107;0.5436342;0.5441755;0.5447073;0.5452438;0.5458217;0.5463653;0.5469505;0.547516;0.5480294;0.54858;0.5491685;0.54975;0.5503091;0.5509011;0.551523;0.5521538;0.5528677;0.5534289;0.5538905;0.5544377;0.5548719;0.5554367;0.5561798;0.5568265;0.5574594;0.5580925;0.5587268;0.559331;0.5598781;0.5604888;0.5611712;0.561753;0.5623949;0.5629026;0.5632831;0.5635813;0.5637122;0.5639209;0.5640142;0.563929;0.5638921;0.5638002;0.5637169;0.5636136;0.5635059;0.5634142;0.5632336;0.5629258;0.5628115;0.5626674;0.5627022;0.5629408;0.5631766;0.5635408;0.5637959;0.5640544;0.5643412;0.5645427;0.5648658;0.5652872;0.5657354;0.5662732;0.5667467;0.5672504;0.5677316;0.5680891;0.5686094;0.5692558;0.569855;0.5705393;0.5711675;0.5717488;0.5723252;0.5729024;0.5734577;0.5740829;0.5745104;0.5747496;0.5750693;0.5753313;0.5755147;0.5757267;0.5758902;0.5757846;0.5758803;0.5761237;0.5763558;0.5767215;0.5770224;0.5773408;0.5775687;0.577606;0.5778015;0.5780222;0.5782148;0.578678;0.5794262;0.5799227;0.5805052;0.5808866;0.5810558;0.5813811;0.581779;0.5818964;0.5818359;0.5820689;0.5822312;0.5824415;0.58296;0.5832129;0.5831736;0.5833937;0.5837147;0.5840856;0.5845768;0.5849284;0.5853243;0.5856245;0.5856903;0.5860641;0.5865415;0.5870918;0.5878937;0.5884472;0.5889965;0.5894173;0.5896754;0.5899574;0.5901745;0.5903683;0.5904447;0.5906823;0.5910062;0.5912514;0.5916513;0.591742;0.5913859;0.5916517;0.5920332;0.592562;0.5937442;0.5942814;0.5944009;0.5948908;0.5953387;0.5958649;0.5967902;0.597189;0.5972916;0.5973884;0.5970924;0.5972642;0.5976292;0.5978782;0.5982131;0.5987309;0.5992502;0.5998567;0.6008369;0.601486;0.6021109;0.6023642;0.6023465;0.6023214;0.6018394;0.6017755;0.6017997;0.6021713;0.6027157;0.6034282;0.6046767;0.6053979;0.6061484;0.6066008;0.6068218;0.6067612;0.6060539;0.6063499;0.606923;0.6070389;0.6075441;0.6082277;0.6083386;0.6089813;0.6104548;0.6116861;0.6129848;0.6134949;0.6141832;0.6129226;0.6118899;0.612051;0.6125485;0.613352;0.6145738;0.615536;0.616348;0.6181322;0.6187443;0.618063;0.6184747;0.6183786;0.6189463;0.6202893;0.6205091;0.6205304;0.6202754;0.6195248;0.6191664;0.6186496;0.6184283;0.6186656;0.6189218;0.6190324;0.6197723;0.6216336;0.622561;0.6234116;0.6238328;0.6230875;0.6227838;0.622664;0.6227327;0.622875;0.6230271;0.6234856;0.6235609;0.6232106;0.6233189
0.8273506;0.8316141;0.8170646;0.7794548;0.8366567;0.9074966;0.9178622;0.8575575;0.8477225;0.8410272;0.8209096;0.8106163;0.8105727;0.8210096;0.8320501;0.8093882;0.8145757;0.8264905;0.8135315;0.8064198;0.7987676;0.7943248;0.8015021;0.8168262;0.8222378;0.8157689;0.8159198;0.8223053;0.8202729;0.8066998;0.8115909;0.8179822;0.8206315;0.8201134;0.8211907;0.8195413;0.8155677;0.8137551;0.8157551;0.8185964;0.8191485;0.8148447;0.8180511;0.8207268;0.8149006;0.8161573;0.8144565;0.8115992;0.8149661;0.8147984;0.8116704;0.8094864;0.8145141;0.8128911;0.810348;0.8121725;0.8095887;0.8082854;0.8095443;0.811955;0.8109015;0.8095177;0.8100895;0.8131037;0.8112156;0.808313;0.8079365;0.8084944;0.8085668;0.8080129;0.8073125;0.8070173;0.8070863;0.806975;0.8060243;0.8076664;0.8081279;0.8058427;0.8050667;0.8048018;0.8054174;0.8068184;0.8057401;0.8048698;0.8047233;0.8041732;0.8037602;0.8031871;0.8024471;0.8022054;0.8015612;0.8009431;0.8009019;0.8008855;0.8012427;0.8019955;0.802763;0.8013197;0.8004031;0.8010279;0.8002729;0.7996759;0.8003788;0.8023472;0.8013149;0.8001892;0.8000357;0.8002773;0.7997656;0.7993273;0.7993954;0.7991488;0.7988341;0.7988709;0.7994151;0.7992008;0.7986134;0.7979913;0.7975778;0.7977055;0.7978125;0.7976199;0.7978287;0.797462;0.7968954;0.7967491;0.795927;0.7959871;0.7967229;0.7961437;0.7951662;0.7949635;0.7957218;0.7950165;0.7941841;0.7938172;0.7939984;0.7936395;0.7931139;0.7926691;0.7922433;0.7919019;0.7917119;0.7915595;0.7906911;0.7905074;0.7907418;0.790281;0.7897987;0.7893746;0.7889861;0.788552;0.7880126;0.7874212;0.7869068;0.7867877;0.7863199;0.7856919;0.7857027;0.7852312;0.784937;0.7850507;0.7843738;0.7839156;0.7837753;0.7836666;0.7830971;0.782567;0.7822382;0.7818807;0.7814906;0.7813582;0.7815666;0.7815959;0.7808682;0.7800756;0.7802494;0.7797476;0.7792995;0.7791425;0.7785345;0.7778054;0.7771695;0.7767597;0.7765384;0.776262;0.7758753;0.775453;0.774768;0.7740775;0.7735878;0.7733023;0.7728761;0.7725513;0.7726404;0.7726165;0.7722766;0.7716756;0.7711117;0.7706923;0.7702995;0.7698351;0.7693927;0.7692479;0.7691554;0.7686701;0.7683188;0.7679084;0.7674429;0.7673574;0.76707;0.7670361;0.7677673;0.7686749;0.7693539;0.7697493;0.7701045;0.7702049;0.769578;0.7682108;0.7671701;0.7666675;0.7665158;0.7663276;0.7661052;0.7657645;0.7650434;0.7634612;0.761664;0.7605162;0.7604777;0.7606654;0.7609687;0.7612121;0.7611944;0.7609436;0.7605747;0.7602521;0.7602301;0.7602029;0.7601414;0.760125;0.7602752;0.7602288;0.7598197;0.7591401;0.7586262;0.7583709;0.7582456;0.7577554;0.7572514;0.7568475;0.7565047;0.7562106;0.7555827;0.7546978;0.7544866;0.7539893;0.7533886;0.7530507;0.7523506;0.7517691;0.7513548;0.7507226;0.7500481;0.7496402;0.749519;0.7489018;0.7482203;0.7476192;0.7470888;0.7464633;0.7459512;0.7455743;0.7450472;0.744506;0.7440566;0.7437271;0.743293;0.7426884;0.7420959;0.7418321;0.7414035;0.7408172;0.7402065;0.7397999;0.7394046;0.7389629;0.7384518;0.7377321;0.7370921;0.736655;0.7363175;0.7356987;0.7351199;0.7348173;0.7342378;0.7336594;0.7331361;0.7325926;0.7320042;0.731487;0.7310518;0.7305142;0.7299716;0.7293364;0.7285641;0.7280161;0.7274735;0.7269516;0.726644;0.7260838;0.7254232;0.7248073;0.7241122;0.7233215;0.7226958;0.7224857;0.7221699;0.7216264;0.7209178;0.7202752;0.7197354;0.7191446;0.7183968;0.7176339;0.7171171;0.7167547;0.7162611;0.7156632;0.71505;0.714509;0.7141218;0.7134009;0.7126992;0.7123681;0.7117053;0.711108;0.7105536;0.7097462;0.7094162;0.7089077;0.708005;0.7077979;0.7071492;0.706305;0.70586;0.7055979;0.7048942;0.7038995;0.703464;0.7031519;0.7024983;0.701438;0.7008515;0.7002613;0.6996099;0.698985;0.6983095;0.6975895;0.6968296;0.696027;0.6953908;0.6946462;0.6936386;0.6928114;0.6921963;0.6916329;0.6909277;0.6904629;0.6898863;0.688993;0.6878419;0.6871707;0.6866631;0.685958;0.6854165;0.6847727;0.6839796;0.6831257;0.6823162;0.6814988;0.6806685;0.6799143;0.6792861;0.6787074;0.6780797;0.6773517;0.6765334;0.6756788;0.6748445;0.673866;0.6730027;0.6722441;0.6711914;0.670539;0.6700129;0.669231;0.6682183;0.6674356;0.6668897;0.6663087;0.6654892;0.6644725;0.6634929;0.6629651;0.6623783;0.6614566;0.660323;0.6600751;0.6593992;0.6584626;0.6580276;0.6576996;0.6570431;0.6561708;0.6557568;0.6551131;0.6543415;0.6536043;0.6528305;0.6519757;0.6510793;0.6502355;0.6495818;0.6491157;0.648641;0.6478334;0.6468738;0.6460136;0.6453587;0.6447327;0.6439971;0.6432286;0.6425295;0.6417772;0.6409479;0.6401087;0.6393675;0.6386256;0.6380041;0.6374954;0.6368974;0.6360915;0.6353458;0.6347969;0.6338874;0.6332054;0.6327466;0.6322355;0.6315975;0.6308855;0.6301413;0.6293977;0.6289238;0.628516;0.6279877;0.6273459;0.6265909;0.6259013;0.6254206;0.6250346;0.6243142;0.6233835;0.6226639;0.6221172;0.6215712;0.6208587;0.6198768;0.6192021;0.6186671;0.618084;0.6175489;0.6169384;0.6162151;0.6153709;0.6143641;0.613551;0.6128787;0.6121022;0.6114909;0.6107094;0.6097577;0.6090243;0.6082484;0.6077265;0.6073887;0.6063236;0.6053057;0.6046267;0.6042712;0.6037408;0.6031178;0.6024315;0.6016732;0.6007023;0.5999975;0.5995983;0.5991601;0.5988532;0.5983364;0.5975365;0.5968425;0.5964572;0.5960292;0.5953532;0.5948991;0.5944292;0.5937235;0.5927141;0.5918249;0.5911229;0.5906264;0.5902503;0.5895911;0.5888385;0.5881186;0.5874336;0.5866044;0.5858672;0.5852724;0.5845563;0.5837403;0.5830086;0.5824503;0.5818986;0.5812559;0.5805448;0.5798175;0.5790837;0.5781775;0.5773606;0.5768895;0.5761338;0.5754061;0.574707;0.5738453;0.5728963;0.5720948;0.5715058;0.5710137;0.5705913;0.5699909;0.5691711;0.5683848;0.5677542;0.5672095;0.5666587;0.5660565;0.5654739;0.5649683;0.5645083;0.5638599;0.5633458;0.5628318;0.5621667;0.5616136;0.5612174;0.5609587;0.5607266;0.5602496;0.5594953;0.5586377;0.5579316;0.5574589;0.5568022;0.5560229;0.5554602;0.5548498;0.5541924;0.5536194;0.5533034;0.5530638;0.55244;0.5515593;0.5510731;0.5504289;0.5496395;0.5488643;0.5483125;0.5478619;0.5473246;0.5466782;0.5461338;0.5456026;0.5449358;0.5442013;0.5437847;0.5430911;0.5422647;0.5415537;0.541072;0.5402516;0.5395907;0.5393619;0.538918;0.5382735;0.5377116;0.5373254;0.5366547;0.5362084;0.5357527;0.5350997;0.534586;0.5344339;0.5342359;0.5337148;0.533302;0.5331649;0.5328721;0.5322732;0.5322638;0.5316259;0.5309574;0.5308128;0.5304658;0.5297663;0.5291542;0.52895;0.5288158;0.5284583;0.5279136;0.527271;0.5264995;0.5261429;0.5257318;0.5249061;0.5240338;0.5236144;0.5233616;0.5229315;0.5222765;0.5217041;0.5213743;0.5210376;0.5200177;0.5194702;0.5188717;0.5179288;0.5170765;0.5166658;0.5160034;0.5150852;0.514743;0.5145382;0.5137251;0.5124909;0.5118169;0.5116646;0.511175;0.5103132;0.509457;0.5088739;0.5083684;0.5078467;0.5072204;0.5065756;0.5059628;0.5052345;0.50463;0.5041477;0.5036129;0.5030574;0.5025175;0.5020208;0.5014928;0.5009221;0.5003986;0.4999177;0.4993639;0.4988948;0.4984392;0.4979586;0.497468;0.497003;0.4965074;0.496085;0.4957799;0.4953362;0.4948637;0.494379;0.49381;0.4932635;0.4927242;0.4921981;0.4916981;0.4910935;0.4905421;0.4900047;0.4894838;0.4890133;0.488464;0.4878896;0.4873091;0.4866912;0.4860489;0.4853749;0.4847484;0.4841081;0.4834677;0.4828868;0.4822667;0.4817531;0.4812036;0.4806229;0.4801064;0.4795239;0.4788269;0.4782006;0.4775971;0.4769805;0.4763653;0.4757539;0.4751728;0.4745989;0.4740353;0.4734948;0.4729063;0.4722628;0.4716779;0.4711308;0.4705677;0.4700493;0.469496;0.4689071;0.4683478;0.4677707;0.4672542;0.4668286;0.4663684;0.4659661;0.4655479;0.4650255;0.4645369;0.4640501;0.4636027;0.463224;0.462788;0.4623808;0.4620188;0.4616071;0.4611631;0.4607576;0.4603651;0.4599377;0.4595661;0.459222;0.4588462;0.4584722;0.4581298;0.4577892;0.4574557;0.4571171;0.4567758;0.4564812;0.4561936;0.4559055;0.4556505;0.4553584;0.4549873;0.4546566;0.4543108;0.4539555;0.4536627;0.4533811;0.4531166;0.4528811;0.4526699;0.452487;0.4522774;0.4520454;0.4518332;0.4515945;0.4513919;0.4511909;0.451059;0.4509621;0.4509006;0.4508713;0.4508928;0.4509535;0.4510191;0.4510909;0.4512104;0.4513816;0.451616;0.4519288;0.4522502;0.4525842;0.4529136;0.4532957;0.4537198;0.454157;0.4546167;0.4551174;0.4556374;0.456128;0.4566392;0.4571001;0.457519;0.4579404;0.4583289;0.4587069;0.4590248;0.4592929;0.4595223;0.4596943;0.459839;0.4599473;0.4600352;0.4600784;0.460124;0.4601655;0.4601723;0.4601385;0.4600962;0.4600479;0.459954;0.4598772;0.4598157;0.4596923;0.459557;0.4594131;0.4592339;0.4590819;0.4589243;0.4587847;0.4586634;0.4585381;0.4583971;0.4583038;0.4582253;0.45818;0.4581534;0.4581497;0.4581802;0.4581833;0.4581804;0.4581789;0.4581465;0.4580777;0.4580083;0.457952;0.4578351;0.4576652;0.4575136;0.457338;0.4571497;0.4569626;0.4567755;0.456567;0.4563534;0.4561726;0.4559516;0.4557334;0.455533;0.4553303;0.4551133;0.4548457;0.4545749;0.4542055;0.4537671;0.4532985;0.4527499;0.4522019;0.4516436;0.4510417;0.450411;0.4497359;0.4489936;0.4482597;0.4474871;0.4467374;0.4459544;0.4451796;0.4444357;0.4436801;0.4429635;0.442296;0.441619;0.4409363;0.4402928;0.4396606;0.4390695;0.4385201;0.4379709;0.4374492;0.4369374;0.4364192;0.4359416;0.4355177;0.4350733;0.4346452;0.4342101;0.4337592;0.4333183;0.4329181;0.4325528;0.4321715;0.43181;0.4314476;0.4310652;0.4307199;0.430401;0.4300861;0.4297916;0.4294936;0.4292004;0.4289159;0.4286352;0.4283591;0.4280834;0.4278258;0.4275832;0.4273438;0.4270984;0.4268646;0.4266258;0.426372;0.4261382;0.425909;0.4257045;0.4255193;0.4253283;0.4251711;0.4249761;0.4247526;0.4245441;0.4243234;0.4241161;0.423923;0.4237255;0.4235221;0.4233326;0.423156;0.4229735;0.4227667;0.4226055;0.4224747;0.4223569;0.4222604;0.4222052;0.4221621;0.4221252;0.4221092;0.4221382;0.4221506;0.4221543;0.4221779;0.4222094;0.4222579;0.4223101;0.4223917;0.4224961;0.4226148;0.4227417;0.4229069;0.4230881;0.4233055;0.4235656;0.4238516;0.4241459;0.4244571;0.4248002;0.4251563;0.4255539;0.4259866;0.4264434;0.4269329;0.4274351;0.4279593;0.4285115;0.4290764;0.4296782;0.4303159;0.4309724;0.4316656;0.4323623;0.4330825;0.4338075;0.4345424;0.4352853;0.4360362;0.4367935;0.43757;0.4383504;0.4392014;0.4400638;0.440903;0.4417641;0.4426061;0.443419;0.4442477;0.4450932;0.4459236;0.4467506;0.4475591;0.4483486;0.4491553;0.4499568;0.4507619;0.45157;0.4524003;0.4532528;0.4540775;0.4548947;0.4557352;0.4565534;0.4573925;0.4582647;0.4592013;0.4601773;0.4611802;0.4622546;0.463401;0.4646647;0.465994;0.4674596;0.4690241;0.4707449;0.472593;0.4745502;0.4766282;0.4788788;0.4812529;0.4837934;0.4864665;0.4894016;0.4925293;0.4958559;0.4994151;0.5032371;0.5073119;0.5115663;0.5161001;0.5208063;0.5257611;0.5308222;0.5360491;0.5415109;0.547051;0.5527034;0.5584112;0.5641444;0.5698426;0.5755352;0.5811112;0.5866831;0.5921652;0.5975813;0.6028107;0.6079897;0.6129175;0.6176292;0.6221032;0.6263629;0.6304491;0.6342776;0.637918;0.6413833;0.6446155;0.6475776;0.6503437;0.6528624;0.6552578;0.6574452;0.6594809;0.6613595;0.6630693;0.6646395;0.6660404;0.6673553;0.6685815;0.6696449;0.6706268;0.6715394;0.6723654;0.6731167;0.6738226;0.6744736;0.6750649;0.6755787;0.6760371;0.6764283;0.676743;0.6770033;0.6772122;0.6773547;0.6773964;0.6774483;0.6774657;0.6774497;0.6774144;0.6773387;0.6771977;0.6770775;0.6769392;0.6767985;0.6766719;0.6765103;0.6763223;0.6761445;0.6759191;0.6756536;0.6753671;0.675024;0.6746511;0.6742547;0.6738179;0.6733642;0.6728903;0.6723592;0.6717445;0.6710521;0.6702763;0.6694049;0.6685037;0.6675144;0.6664529;0.6653024;0.6641557;0.6629516;0.6617103;0.6604074;0.6591355;0.6578387;0.6565396;0.655277;0.6539797;0.6526417;0.6512882;0.6499223;0.6485532;0.6471746;0.6457604;0.6443384;0.6429024;0.6414088;0.6399406;0.63849;0.6370187;0.63555;0.6340456;0.6324829;0.6309904;0.6295173;0.6280417;0.6265849;0.6250747;0.6235471;0.622025;0.6204859;0.6189839;0.6174628;0.6159367;0.6144932;0.6130216;0.6115109;0.6100195;0.6085122;0.6070187;0.6055356;0.6040341;0.6025403;0.6010543;0.5996159;0.5981992;0.5967398;0.5952637;0.5938094;0.5923452;0.5908721;0.5894099;0.5879481;0.5864586;0.5850049;0.5835837;0.5821645;0.58074;0.579326;0.5779259;0.5765335;0.5751485;0.5737861;0.5724383;0.5711056;0.5698054;0.5684629;0.5671065;0.5657641;0.5644031;0.5630695;0.5617534;0.5604567;0.5591662;0.5578908;0.5566362;0.5553929;0.5541668;0.5529459;0.5517413;0.5505512;0.5493656;0.5481837;0.5470035;0.5458468;0.5447038;0.543577;0.5424627;0.5413805;0.5403235;0.539267;0.5382445;0.5372469;0.5362622;0.5352821;0.5343109;0.5333667;0.532407;0.5314584;0.5305458;0.5296136;0.5287082;0.5278431;0.5269538;0.5260932;0.5252795;0.5244356;0.5236052;0.5228149;0.5220052;0.5211963;0.5203859;0.5195827;0.5187775;0.517952;0.5171655;0.5163887;0.5156109;0.5148658;0.5141553;0.5134522;0.5127726;0.5121323;0.5114449;0.5107446;0.5100763;0.509391;0.5087344;0.5081206;0.5074884;0.506858;0.50625;0.5056366;0.5050387;0.5044497;0.503853;0.5032796;0.5026994;0.5021079;0.5015483;0.5009919;0.5004737;0.4999862;0.4994604;0.4989836;0.4985175;0.4980213;0.4975548;0.4971159;0.4966642;0.4962128;0.4957719;0.4953254;0.4949236;0.4945436;0.4941582;0.4938051;0.4934447;0.4930734;0.4927123;0.4923722;0.4920176;0.4916459;0.4912968;0.4909592;0.4906166;0.4902757;0.4899532;0.4896288;0.4893327;0.4890586;0.4887992;0.4885598;0.4883269;0.4881079;0.487898;0.4876865;0.4875165;0.487379;0.4872404;0.4871159;0.487034;0.4869378;0.4869152;0.4869238;0.4868757;0.4868839;0.4869014;0.4868942;0.4869728;0.487107;0.4872591;0.4874666;0.4876726;0.4878541;0.4880639;0.4883017;0.4885646;0.4889075;0.4892924;0.4896745;0.4901068;0.4905849;0.491129;0.4917313;0.4923692;0.4930788;0.4938345;0.4946409;0.4955282;0.4964797;0.4975093;0.4985812;0.499727;0.5009294;0.5022233;0.5034906;0.5048248;0.5061254;0.507434;0.5086667;0.5098869;0.511022;0.5120366;0.5130394;0.5139737;0.5149166;0.515801;0.5167406;0.5176808;0.5186689;0.5197053;0.520765;0.5218581;0.5229794;0.5241465;0.52531;0.5265015;0.5276887;0.5288836;0.5300698;0.5312465;0.5324462;0.5336722;0.5348559;0.5360532;0.5372064;0.538334;0.5393953;0.5404618;0.5413833;0.5422158;0.5429317;0.543547;0.5440269;0.5444043;0.5446062;0.5446676;0.5445575;0.5442447;0.5438746;0.5433536;0.542774;0.5420634;0.541418;0.5406783;0.5400729;0.5394962;0.5390835;0.5387373;0.53856;0.538544;0.5386404;0.53882;0.5391128;0.5395858;0.5402357;0.5409605;0.5419176;0.5428286;0.5437503;0.5447264;0.5457749;0.5467699;0.5478063;0.5488004;0.5497766;0.5506529;0.5515479;0.5522533;0.5527924;0.553253;0.5535765;0.5538323;0.5540001;0.5540724;0.5540043;0.5539415;0.5537857;0.5536577;0.5535112;0.5533961;0.5532735;0.5531821;0.5531114;0.553075;0.5530475;0.5530847;0.5531899;0.5532727;0.5534009;0.5534444;0.5535108;0.553588;0.5536199;0.5536916;0.5537888;0.5539101;0.5540603;0.5541897;0.5543034;0.5543875;0.5544549;0.5545124;0.5545668;0.5546069;0.5546117;0.5546066;0.5546011;0.5545465;0.5739603;0.5739004;0.5738161;0.5737364;0.5735977;0.573459;0.5732232;0.5729657;0.572605;0.5721648;0.5716104;0.5710866;0.5704364;0.5699345;0.5694749;0.5690249;0.5686128;0.5682302;0.5678062;0.5674948;0.5672309;0.5670171;0.5668743;0.5668109;0.5667585;0.5667627;0.5667897;0.5668433;0.5669332;0.5670093;0.5671592;0.5673128;0.5674436;0.5676724;0.567942;0.5682795;0.5686729;0.5691414;0.5696626;0.5702441;0.570969;0.5716863;0.5725306;0.5734519;0.5745189;0.5757016;0.5769682;0.578365;0.5797796;0.5813754;0.583124;0.5849969;0.5870608;0.5892786;0.5915788;0.5941344;0.5968733;0.5998551;0.603098;0.6065032;0.6100662;0.6138518;0.6177346;0.6218172;0.6261532;0.6307126;0.6355675;0.640749;0.6460822;0.6517062;0.6576458;0.6637677;0.6702341;0.6768593;0.6834778;0.690282;0.6973285;0.7042131;0.7111176;0.7181784;0.7251772;0.7320826;0.7388514;0.7455302;0.7520932;0.7583668;0.7644303;0.7703378;0.7761534;0.7816433;0.7868583;0.7918868;0.7965303;0.8007088;0.8045365;0.80814;0.811637;0.8149395;0.8179464;0.8207568;0.8232508;0.8254437;0.8273666;0.829042;0.8306574;0.8320614;0.8332183;0.8343971;0.8354724;0.8364205;0.8372421;0.8380751;0.8387389;0.8392817;0.8398935;0.8404005;0.8407294;0.8411345;0.8414587;0.8416877;0.8419068;0.8420975;0.8422378;0.8423105;0.8424249;0.842505;0.8426077;0.8425615;0.8423432;0.8420797;0.8418524;0.8416382;0.8414924;0.8412457;0.8409832;0.840687;0.8402224;0.839794;0.8393708;0.8388979;0.8385328;0.8381339;0.8376865;0.8372141;0.8367325;0.8361703;0.8356685;0.8352012;0.8347645;0.8342263;0.8336397;0.833093;0.8324962;0.8319187;0.8314194;0.8308218;0.8300932;0.8294736;0.8288678;0.8282722;0.8277364;0.8272518;0.8266879;0.8259337;0.8251992;0.8243948;0.823627;0.8228302;0.8220477;0.8212749;0.8204595;0.8195503;0.8187876;0.8180039;0.8172894;0.8166859;0.8160182;0.8152628;0.814503;0.8136296;0.8125935;0.8116083;0.8105437;0.8095425;0.8086393;0.8076286;0.8065631;0.8055049;0.8044641;0.803324;0.8023396;0.8014674;0.8005579;0.7997267;0.7987952;0.7977883;0.7968599;0.7959485;0.7949935;0.7940512;0.7931502;0.7921723;0.7910922;0.7900808;0.7890739;0.7880891;0.7871196;0.7861567;0.7852136;0.7842694;0.783308;0.7823787;0.7814602;0.7805989;0.7796893;0.7787632;0.7778792;0.7769553;0.7761385;0.7754993;0.7746598;0.7737704;0.7728862;0.7718433;0.770905;0.7700976;0.7692058;0.768291;0.7672942;0.7664896;0.7657373;0.7649754;0.7643775;0.7636487;0.7628011;0.7620245;0.7612753;0.7605184;0.759764;0.7590142;0.7582675;0.7575235;0.7567785;0.7560154;0.7553118;0.7546383;0.753955;0.7533185;0.7526497;0.7519816;0.751272;0.7505198;0.7497978;0.7491229;0.7483437;0.7475235;0.7467031;0.7458255;0.7448493;0.7438801;0.7428787;0.7419147;0.740953;0.739935;0.7389591;0.7379058;0.7366782;0.7355753;0.7345222;0.7334627;0.7324243;0.7314306;0.7304345;0.7294323;0.728445;0.7275059;0.726532;0.7255191;0.7245563;0.7235638;0.7226624;0.7218501;0.7210119;0.7202876;0.7194633;0.7185557;0.7176363;0.7167791;0.7159141;0.7150328;0.7141993;0.7133424;0.7123723;0.7115562;0.7108608;0.7101139;0.7094274;0.7087061;0.7079243;0.7071855;0.7064399;0.7057573;0.7050737;0.7044047;0.7037694;0.7031695;0.7025549;0.7019827;0.7013693;0.7007494;0.7000976;0.6993735;0.6987211;0.6980647;0.6974493;0.6968961;0.6963453;0.6957961;0.695273;0.6947966;0.6943782;0.6939149;0.6934741;0.6930155;0.6925075;0.6920513;0.691606;0.6912071;0.6908619;0.6904949;0.6901709;0.6898155;0.6894169;0.6890453;0.6887046;0.6883079;0.6879458;0.687636;0.6874043;0.6872864;0.687065;0.6868647;0.686647;0.6863948;0.6861035;0.685835;0.6855206;0.6850207;0.684705;0.6845118;0.6842662;0.6841064;0.683894;0.6836004;0.6833702;0.6831506;0.6829622;0.6827787;0.6826071;0.6824416;0.682254;0.6821476;0.6820939;0.6820342;0.6820194;0.6820182;0.6821371;0.682048;0.6818842;0.6816996;0.6812629;0.6809856;0.680813;0.6806546;0.680478;0.6802139;0.6800036;0.679756;0.6795405;0.6794444;0.6791622;0.6787311;0.6784095;0.6780368;0.6776975;0.6774733;0.6771593;0.67674;0.6763957;0.6760676;0.6757536;0.6754959;0.6751895;0.6749478;0.6747172;0.674334;0.6740294;0.6737314;0.673366;0.6730801;0.6729052;0.6726564;0.6723387;0.6721203;0.6719424;0.6717883;0.6717232;0.6715909;0.6714438;0.6712987;0.6710984;0.6709686;0.6708813;0.6708023;0.670746;0.6707115;0.6707537;0.6707545;0.6708465;0.671011;0.6711671;0.6713694;0.6715388;0.6716916;0.6718982;0.6720543;0.6723914;0.6728827;0.6733094;0.6738416;0.6742879;0.6746051;0.675063;0.675584;0.6761227;0.6767244;0.6773493;0.6779751;0.6786623;0.6793492;0.6801776;0.6811629;0.6821103;0.6831038;0.6842017;0.6852434;0.6862298;0.687297;0.6884033;0.6895461;0.6907319;0.6919155;0.6931227;0.6943769;0.6956538;0.6969593;0.6983238;0.6996897;0.7010894;0.7024498;0.7038307;0.7052039;0.7064838;0.7078748;0.7094033;0.7108064;0.7122807;0.7136146;0.7146611;0.7158893;0.7172589;0.7184594;0.7195756;0.7207792;0.7217891;0.7228686;0.7240735;0.7255174;0.7267082;0.7278656;0.7289432;0.7298399;0.7309042;0.7320038;0.7331179;0.7342361;0.7354618;0.7367127;0.7380628;0.739648;0.7410614;0.7423721;0.7438312;0.7451953;0.7467973;0.7487375;0.7505018;0.7523052;0.7540888;0.7558638;0.7575331;0.7592572;0.7607932;0.7623077;0.7634605;0.7644776;0.7651085;0.7652993;0.7652017;0.7647725;0.7641612;0.7635537;0.7627843;0.7619401;0.761044;0.7600504;0.7587039;0.7578939;0.7572095;0.7567073;0.7565425;0.7563778;0.7562449;0.7563385;0.7566784;0.7570435;0.7575199;0.7581212;0.7589247;0.7596188;0.7602678;0.7612033;0.7621974;0.7633332;0.7648802;0.7662346;0.7674774;0.76887;0.770371;0.7718313;0.7733793;0.7748737;0.7765179;0.7777842;0.7790163;0.7798449;0.7801102;0.7803969;0.7803603;0.7803892;0.7802358;0.7802738;0.7804004;0.7805431;0.7808469;0.7811084;0.7812896;0.7815707;0.7818779;0.7822819;0.7830424;0.7834514;0.7835156;0.7838491;0.7841456;0.7843438;0.7848206;0.7857366;0.7862046;0.7864085;0.7870876;0.7878404;0.7886868;0.7900622;0.7906201;0.7908849;0.7909399;0.7903246;0.7905014;0.7908074;0.791223;0.7921782;0.7926083;0.7926773;0.793226;0.7938915;0.7944841;0.7954907;0.7958499;0.7956793;0.7958843;0.7959235;0.7962072;0.7967476;0.7972755;0.7979709;0.7983317;0.7985354;0.7989718;0.7991182;0.7997845;0.8009247;0.8020302;0.8035641;0.8044562;0.8052891;0.8058118;0.8056064;0.8059093;0.8064312;0.8066108;0.8065558;0.8069224;0.807278;0.8077241;0.8086568;0.8091918;0.8093868;0.8098617;0.8104002;0.8110123;0.8117772;0.8123502;0.8132249;0.8133105;0.8123953;0.8127856;0.8132413;0.8139564;0.8157726;0.817011;0.8182196;0.8187398;0.8187328;0.8194743;0.8199736;0.8202929;0.8212799;0.8218971;0.8215415;0.8219362;0.8229765;0.8239697;0.8251116;0.8259931;0.8271276;0.8277022;0.827657;0.8278786;0.8280724;0.8284602;0.828546;0.8291598;0.8303024;0.8310236;0.8321828;0.8324358;0.8319508;0.8322099;0.8320827;0.8328902;0.8344216;0.8368089;0.8379388;0.8389422;0.8394591;0.8401667;0.8415195;0.8416621;0.8421313;0.8424012;0.8423126;0.8434914;0.8437617;0.8423842;0.841466;0.8401334;0.8397193;0.8402254;0.8409939;0.8438981;0.8452787;0.8458502;0.8465931;0.8457959;0.8462511;0.8490214;0.8492072;0.8473752;0.8469517;0.8453797;0.8448851;0.8468959;0.8480805;0.8481807;0.8489533;0.8507403;0.8514675;0.8519703;0.8525383
1.2785567;1.224659;1.2070211;1.2164389;1.4436007;1.4928514;1.3540807;1.3838279;1.3259096;1.2740611;1.2598727;1.2478883;1.2623953;1.2693667;1.2553909;1.2711347;1.2614775;1.2553661;1.2758939;1.2235731;1.2106197;1.2323154;1.228103;1.2365372;1.2362655;1.228501;1.2472264;1.2354684;1.2296462;1.2521524;1.2477391;1.2308573;1.2189208;1.2232544;1.2278798;1.2233518;1.2183042;1.2319952;1.2290255;1.2213662;1.2204628;1.2242749;1.2272463;1.2319868;1.237887;1.2210419;1.2149068;1.2250272;1.2381097;1.2295066;1.2146672;1.2115037;1.2355889;1.2295344;1.2135597;1.2126377;1.2151054;1.2161988;1.2158573;1.2163056;1.2175766;1.2170706;1.2152678;1.215519;1.2126933;1.2102364;1.2107123;1.2121688;1.20996;1.2061077;1.204546;1.2059774;1.2048112;1.2023362;1.2048085;1.2054331;1.2011168;1.1943851;1.196438;1.1957672;1.1941537;1.1951652;1.192214;1.1893358;1.187602;1.1857263;1.1829132;1.1825461;1.185172;1.18621;1.1819162;1.1782526;1.1800678;1.1766692;1.1736629;1.1740413;1.1776593;1.1730689;1.170338;1.1734171;1.1715955;1.1698571;1.1694077;1.1696006;1.1664186;1.1638867;1.1631515;1.1629746;1.1620474;1.160941;1.1601263;1.1594235;1.1575205;1.1555649;1.1549035;1.1539556;1.1526474;1.1512609;1.1503174;1.149985;1.1495272;1.1484557;1.1470199;1.1460547;1.145057;1.1433837;1.1425101;1.1421319;1.141651;1.140334;1.1382639;1.1372266;1.1377513;1.1364779;1.134865;1.133619;1.1329398;1.1317389;1.1299998;1.1282628;1.1275649;1.1266881;1.125971;1.1255916;1.124053;1.1225388;1.1214294;1.1205806;1.1196007;1.1187395;1.1179854;1.1168271;1.1152585;1.1140506;1.1135714;1.1117221;1.1099095;1.1090533;1.1094233;1.1087806;1.107888;1.1071885;1.1053697;1.1045316;1.1045973;1.1044517;1.1020318;1.1006303;1.1009452;1.1008313;1.0996624;1.0984504;1.098078;1.0983442;1.0968612;1.0945312;1.0936224;1.0931683;1.092697;1.0919938;1.0911607;1.0894723;1.0877597;1.0868608;1.0861121;1.0852575;1.0842655;1.0832498;1.0818739;1.0805353;1.0796132;1.0793954;1.0782781;1.0770544;1.0769268;1.0761257;1.0750686;1.0741198;1.073427;1.0724293;1.0712758;1.0702262;1.0693874;1.0686264;1.0677084;1.0664504;1.0656059;1.0644162;1.0628659;1.0623133;1.0616217;1.0610983;1.0611219;1.0605128;1.0597472;1.0590187;1.0582147;1.0573009;1.0557213;1.0534939;1.052117;1.0512079;1.0503291;1.0490955;1.0479981;1.0469879;1.0457386;1.043635;1.0420763;1.0409932;1.0400531;1.0396017;1.0390188;1.0382619;1.0376697;1.0366775;1.0356376;1.034842;1.0342344;1.0337268;1.0330374;1.0320009;1.0314626;1.030966;1.0301456;1.0288537;1.0281707;1.0276642;1.0267993;1.0257742;1.0250404;1.0243831;1.0232713;1.0222793;1.0211172;1.0197591;1.0188074;1.0175142;1.0161225;1.0149972;1.0134488;1.0119004;1.0104632;1.0089177;1.0075243;1.0062932;1.0051129;1.0036811;1.0022614;1.0008974;0.9995538;0.9984171;0.9973727;0.9962714;0.9949608;0.9936863;0.9924496;0.991261;0.9904917;0.9893925;0.9879947;0.9869009;0.9857377;0.9846044;0.983565;0.9824836;0.9812859;0.9801193;0.9791236;0.9778224;0.9765265;0.9753953;0.9743491;0.972844;0.9715856;0.9709861;0.9696696;0.9684499;0.9673555;0.9660231;0.9648729;0.9638494;0.9628202;0.961619;0.9604234;0.9591292;0.9576868;0.9566579;0.9554527;0.9541121;0.9531828;0.951967;0.9506328;0.9493404;0.9478611;0.9466141;0.9454896;0.9442254;0.9431043;0.9419994;0.9408609;0.939756;0.9386672;0.9373754;0.9358342;0.9345972;0.9334999;0.9323229;0.9308903;0.929704;0.9286192;0.9275253;0.9264922;0.9250978;0.9236294;0.922438;0.9212196;0.920153;0.9190972;0.9177222;0.9166526;0.9154412;0.9139628;0.9130518;0.9118028;0.9103599;0.9091692;0.9082765;0.9068269;0.9050253;0.9040303;0.9030128;0.9016618;0.9000261;0.8987377;0.8974881;0.8962016;0.8948924;0.8935373;0.8923057;0.8910427;0.8892577;0.8879535;0.8866518;0.8849437;0.8835192;0.8821358;0.880722;0.8792932;0.8778635;0.8765572;0.8752255;0.8733799;0.871868;0.870543;0.869129;0.8677087;0.8663958;0.8650102;0.8633159;0.8619183;0.8605093;0.8589285;0.8573476;0.8558288;0.8543657;0.8529413;0.8515885;0.8501381;0.8486245;0.8471527;0.8453522;0.8436802;0.8421918;0.8403428;0.8389431;0.8377354;0.8363312;0.8347798;0.8333275;0.8320395;0.8308213;0.8293203;0.8275181;0.8257166;0.8245356;0.8231502;0.8215611;0.8200097;0.8188573;0.8174595;0.8159142;0.8146244;0.8134691;0.8120786;0.8105165;0.8093029;0.8078468;0.8063668;0.80502;0.803424;0.8020368;0.8007035;0.7991461;0.7977878;0.7966444;0.795526;0.7941121;0.7925598;0.7911114;0.7898483;0.7885282;0.787155;0.7857808;0.7844507;0.7830873;0.7817162;0.7803538;0.7789983;0.777565;0.7763043;0.7751977;0.773838;0.7723958;0.7710593;0.7698814;0.7684997;0.7672106;0.76599;0.7646848;0.763334;0.7619736;0.7605885;0.7591401;0.7580621;0.7570001;0.7557269;0.754508;0.7530875;0.7517385;0.7507018;0.7495791;0.7482128;0.7467225;0.7453818;0.7442336;0.743091;0.7417712;0.7401632;0.7388124;0.7376803;0.7366065;0.7354574;0.7342223;0.7328898;0.7314683;0.730021;0.7287034;0.7274542;0.7261465;0.7251209;0.7237898;0.7221836;0.7210233;0.719791;0.718691;0.7177056;0.716195;0.7146297;0.7133278;0.7123651;0.7111849;0.7100267;0.7088573;0.7075188;0.7059371;0.7045236;0.7034156;0.70247;0.7014909;0.7003226;0.6989809;0.697701;0.6966481;0.6955596;0.6942824;0.6931658;0.6920728;0.6907977;0.6892447;0.6877341;0.6865458;0.6856258;0.6846933;0.6834754;0.6821639;0.6808673;0.6795735;0.6782649;0.6770205;0.6758586;0.6747018;0.6734558;0.6722638;0.6712049;0.6701398;0.6689696;0.6676738;0.6663228;0.6651658;0.6639212;0.6626791;0.6616021;0.6604073;0.6593196;0.6582425;0.6569223;0.655589;0.6543503;0.6532719;0.6523532;0.6514612;0.6503386;0.6490152;0.6478817;0.6468486;0.6456774;0.6443513;0.6432678;0.6423468;0.6415727;0.6407893;0.6394981;0.6382284;0.6370562;0.635976;0.6352382;0.6343032;0.6333895;0.6327823;0.6317058;0.6303059;0.6289424;0.6279421;0.6269332;0.6257722;0.6246045;0.6236798;0.6226225;0.6216412;0.6207424;0.6197656;0.6190025;0.6180514;0.6169275;0.616078;0.615067;0.6139182;0.6127586;0.6117509;0.6110566;0.6102987;0.6093288;0.6084394;0.6075695;0.6066298;0.6056674;0.6049277;0.6039907;0.602947;0.6019737;0.6011782;0.6001369;0.5993912;0.599133;0.598475;0.5976464;0.5968683;0.5962199;0.5954599;0.5948713;0.5943741;0.5937883;0.5929339;0.5927237;0.5925913;0.5919628;0.5912386;0.5907496;0.5902174;0.5894629;0.5889736;0.5882331;0.5874078;0.5866634;0.585704;0.5851036;0.5844225;0.5834292;0.5829424;0.5823644;0.5813465;0.5800073;0.5792128;0.5781564;0.5772143;0.5765619;0.5755026;0.5742718;0.5732068;0.5723581;0.5712752;0.5701942;0.5693749;0.5687206;0.5676656;0.5667751;0.565783;0.5645644;0.5633839;0.5625259;0.561412;0.5598745;0.5584363;0.5581191;0.5575149;0.5562177;0.5550349;0.5539671;0.5528582;0.5520425;0.5560379;0.5550935;0.5542272;0.5534018;0.5524804;0.5515216;0.5505708;0.5495718;0.5486154;0.5476436;0.5467475;0.5459064;0.5450453;0.5442877;0.5434118;0.5424399;0.5415018;0.5404652;0.53951;0.5387697;0.5379875;0.5371531;0.5363702;0.5355388;0.5345653;0.5337449;0.5330484;0.5322641;0.5315136;0.5306967;0.5297722;0.5289195;0.5281873;0.5273979;0.52663;0.5258824;0.5250921;0.5242252;0.5234069;0.5226042;0.5218211;0.5210814;0.5202519;0.5193747;0.5185488;0.5176664;0.5168395;0.5160939;0.5153512;0.514662;0.5139011;0.5131159;0.5124061;0.5116768;0.5109113;0.5102056;0.5095742;0.5088644;0.5081054;0.5074061;0.506707;0.5060142;0.5053934;0.5047688;0.5040437;0.5033711;0.5026908;0.5019556;0.5013379;0.5007138;0.5000726;0.4994545;0.4988244;0.4981425;0.4975314;0.4969396;0.4964;0.4958776;0.4952801;0.4947145;0.4941354;0.4935471;0.4930901;0.4925729;0.4920053;0.4915023;0.4909274;0.4903917;0.4898951;0.489403;0.488906;0.4884344;0.4879941;0.487541;0.4870799;0.4866118;0.4861195;0.485607;0.4851389;0.4847045;0.4842413;0.4838108;0.4834259;0.4830196;0.4826365;0.4822539;0.4818907;0.4814649;0.4810538;0.4806755;0.4802734;0.479901;0.4795695;0.4792256;0.4788953;0.4785741;0.4782472;0.4779261;0.4776312;0.4773436;0.4770798;0.4768762;0.4766867;0.4765149;0.4764;0.4763439;0.4762966;0.4763362;0.4764943;0.4766852;0.4769459;0.4772741;0.4776233;0.4780809;0.4786177;0.4792138;0.4798966;0.4806168;0.4813902;0.482174;0.4830078;0.4838764;0.4847585;0.4856842;0.4866949;0.4876755;0.4886443;0.4895425;0.4903616;0.4911414;0.4918437;0.4925301;0.4930874;0.4935564;0.4939725;0.4942795;0.4945441;0.4947891;0.4949396;0.4949836;0.4950122;0.4949885;0.494927;0.4948119;0.4946913;0.4945545;0.4943486;0.4941407;0.4939483;0.4937441;0.4935167;0.4932855;0.4930443;0.4928102;0.4925675;0.4923377;0.4921021;0.491888;0.4916601;0.4914779;0.4913169;0.4912095;0.4911387;0.4910812;0.4910218;0.4909384;0.4908092;0.4906805;0.4905482;0.4904108;0.4902525;0.4901094;0.4898975;0.4896221;0.4893742;0.489104;0.4888292;0.4885699;0.4882915;0.4879882;0.4876733;0.487378;0.4870624;0.4867586;0.4864315;0.4861018;0.4857684;0.4853722;0.4849605;0.4844753;0.4839289;0.4833403;0.4826895;0.4820254;0.4813447;0.4805937;0.4797846;0.4789558;0.4780513;0.4771627;0.4762651;0.4753665;0.4744512;0.4735388;0.4726585;0.4717815;0.4709471;0.4701425;0.4693549;0.4685913;0.4678511;0.467121;0.4664402;0.4658122;0.4651719;0.4645379;0.4639451;0.4633808;0.462812;0.462288;0.4617566;0.4612162;0.4606591;0.4601586;0.4596435;0.4591429;0.4586415;0.4581808;0.4577354;0.4573083;0.4569182;0.4565236;0.4561289;0.4557576;0.4553995;0.4550613;0.4547661;0.4544381;0.4540905;0.4537759;0.4534477;0.4531486;0.4528922;0.4526471;0.4523917;0.4521365;0.4518923;0.451644;0.451424;0.4512033;0.4510367;0.4509217;0.4507829;0.4506823;0.4505504;0.4503735;0.4502456;0.4501146;0.4500306;0.4500164;0.4499636;0.449915;0.449875;0.4497937;0.4497615;0.449776;0.4497871;0.4498289;0.4498875;0.4499885;0.4501237;0.4502628;0.4504265;0.4506173;0.4508108;0.4510486;0.4513296;0.4516291;0.4519634;0.4522987;0.4526394;0.4530229;0.4534107;0.4538451;0.4543467;0.4548454;0.4553445;0.4558915;0.4564666;0.4570579;0.4576997;0.4583837;0.4591051;0.459853;0.4606599;0.4615274;0.462408;0.4633122;0.4642767;0.4652786;0.466318;0.4674155;0.4685403;0.4697099;0.4708792;0.4720685;0.4732965;0.4745221;0.4758057;0.4771595;0.4785241;0.4799237;0.4813428;0.4827742;0.4841945;0.4856574;0.4871495;0.4886156;0.4901007;0.491574;0.4930248;0.4944911;0.4959761;0.4974574;0.4989455;0.5004056;0.5018542;0.5033129;0.5047687;0.50621;0.5076458;0.5090922;0.5105239;0.5119613;0.51338;0.5148706;0.5163859;0.5179195;0.5194937;0.5211515;0.5228721;0.5246288;0.5265012;0.5285317;0.5307162;0.5330082;0.5354907;0.5381151;0.5409896;0.5440189;0.5473177;0.550858;0.5546807;0.5587341;0.5631295;0.5677878;0.5728927;0.5784123;0.5842658;0.5905346;0.5972505;0.6044362;0.6119672;0.6199872;0.628391;0.6372926;0.6464196;0.6558638;0.6657636;0.6758949;0.6862951;0.6968562;0.7075399;0.7182834;0.7291169;0.7398048;0.7506438;0.7612511;0.7717303;0.7818936;0.7919239;0.8015715;0.8107978;0.8196286;0.828094;0.8361885;0.8437389;0.8509505;0.8577632;0.864164;0.8700598;0.8755217;0.8804611;0.8851095;0.8892595;0.8930872;0.8966453;0.8998774;0.9028343;0.905504;0.9079084;0.9100884;0.9120246;0.9137618;0.9153692;0.9168193;0.9180912;0.919173;0.9201508;0.9209687;0.9216884;0.9222812;0.9227946;0.9231967;0.9234877;0.9236732;0.9237772;0.9237602;0.9236801;0.9235029;0.9233084;0.9230422;0.9227418;0.9224173;0.9220345;0.9215275;0.9210933;0.9207071;0.9202365;0.9197451;0.919279;0.9186537;0.9179704;0.9172822;0.9165096;0.9156631;0.914769;0.913837;0.9127675;0.9115923;0.9103673;0.9090162;0.9075539;0.9059696;0.904255;0.902499;0.9005822;0.8985184;0.8963603;0.8940873;0.8916203;0.8891239;0.8865378;0.8839225;0.881216;0.8784942;0.8757719;0.8729838;0.8701142;0.8672496;0.8643523;0.8614377;0.8585399;0.8555589;0.8524824;0.8494798;0.8464823;0.8434337;0.8404031;0.8373438;0.8342021;0.8311065;0.8280154;0.8249797;0.8220169;0.8189617;0.8159124;0.8128456;0.8097686;0.8067159;0.80366;0.8006552;0.7976457;0.7946126;0.7916108;0.788595;0.7855431;0.7824958;0.7794742;0.7765161;0.7735701;0.7706231;0.7677209;0.7648067;0.7619975;0.7592063;0.7563719;0.753552;0.7507573;0.7479233;0.7451415;0.7424035;0.7396658;0.7369479;0.7342038;0.7314632;0.7287777;0.7260676;0.7234132;0.7208218;0.7182378;0.7156739;0.7131191;0.7105919;0.7080849;0.7055731;0.703106;0.7006689;0.698253;0.6958796;0.6934939;0.6911111;0.6887869;0.6864895;0.6841826;0.6818759;0.6796331;0.6774206;0.6752199;0.6730679;0.6709465;0.6688341;0.6667286;0.6646341;0.662609;0.6605942;0.6586354;0.6567613;0.6549075;0.6530879;0.6512706;0.6495042;0.6477937;0.6461078;0.6444268;0.6427258;0.6410593;0.6393848;0.6377148;0.6360818;0.6344299;0.6328382;0.6312963;0.629793;0.6283502;0.6268724;0.625385;0.6239335;0.6224759;0.6210474;0.6196653;0.6182737;0.6169285;0.6156175;0.6142601;0.61291;0.6115627;0.6102328;0.6089187;0.6075898;0.6063185;0.6050636;0.603798;0.6025765;0.6013837;0.6002159;0.5990822;0.5979409;0.5968109;0.5957229;0.594643;0.5936007;0.5925823;0.5915811;0.5905892;0.5895811;0.5886115;0.5876166;0.5865868;0.585643;0.5847324;0.5838262;0.5829743;0.5820839;0.5811911;0.5803764;0.5795402;0.5787262;0.5779697;0.5771679;0.5763328;0.5755308;0.5747315;0.5739579;0.5731861;0.5724787;0.5718228;0.5711348;0.570469;0.5698116;0.5691383;0.5685019;0.5679101;0.5672946;0.5666657;0.5660626;0.5654659;0.5649018;0.5643549;0.5638326;0.563342;0.5628584;0.5623881;0.5619465;0.5615218;0.5611186;0.5607285;0.5604001;0.5601155;0.559823;0.5595743;0.5592996;0.5590597;0.5588817;0.5586962;0.5585756;0.5585024;0.558461;0.5584818;0.5585315;0.5586013;0.5586955;0.5588252;0.5589949;0.5591799;0.5594202;0.5597265;0.5600493;0.5604175;0.5608299;0.5612721;0.5617537;0.562308;0.5629545;0.5636563;0.5644032;0.565217;0.5660979;0.5670112;0.5680339;0.5691941;0.5704173;0.571679;0.5729844;0.5743815;0.5758972;0.5773942;0.5790173;0.5805547;0.5820403;0.5835056;0.584927;0.5863326;0.5877267;0.5890673;0.5903528;0.5916387;0.5928136;0.5941138;0.5954546;0.5968556;0.5983958;0.5998754;0.6013297;0.6028555;0.6044018;0.6059645;0.6075971;0.6092153;0.6108321;0.6124424;0.6140714;0.6156916;0.6172998;0.6188957;0.6205123;0.6220769;0.6236472;0.6250986;0.6265056;0.6277968;0.628979;0.6300654;0.6311017;0.6319261;0.6326161;0.6331183;0.6334373;0.6335785;0.6334943;0.6333768;0.6330987;0.6327577;0.632324;0.6318759;0.6312667;0.630845;0.6304268;0.6302319;0.630135;0.630249;0.6305504;0.6310256;0.6316378;0.6324357;0.633338;0.6343839;0.6355591;0.6369525;0.638337;0.6398228;0.6413277;0.6429139;0.6444204;0.6459228;0.6474215;0.6489113;0.6502967;0.6517332;0.652955;0.6539814;0.6549293;0.6557628;0.6564671;0.6570517;0.6575163;0.6577948;0.6580539;0.6581782;0.6583452;0.6584627;0.6586353;0.6588149;0.6590351;0.659286;0.6595535;0.6598601;0.660156;0.6604706;0.6607701;0.6610721;0.6613806;0.6616604;0.6619353;0.6621433;0.6624122;0.662676;0.6628788;0.6631092;0.6632844;0.663447;0.6636305;0.6637912;0.6639074;0.664024;0.6641801;0.6642452;0.6642431;0.6642461;0.6641589;0.6794144;0.6793978;0.679392;0.6794697;0.6794367;0.6794202;0.6792654;0.6790287;0.6787423;0.6783854;0.6779277;0.6774501;0.6769047;0.6763835;0.6756796;0.675233;0.6748843;0.674592;0.6744292;0.6743327;0.6742316;0.674125;0.6741119;0.6741419;0.6742465;0.6744319;0.6746451;0.6749196;0.6752008;0.6755518;0.6760275;0.6765311;0.6771107;0.6777481;0.6783754;0.6791714;0.6799989;0.6810344;0.6822526;0.6835459;0.6849772;0.6866614;0.6884284;0.6902805;0.6923866;0.694734;0.6971155;0.6995937;0.7022445;0.7052214;0.7083947;0.711906;0.7158788;0.7200955;0.7245666;0.7293688;0.7345245;0.7400064;0.7458165;0.7519229;0.7584748;0.7654741;0.7728463;0.7807023;0.7889075;0.7975612;0.8067112;0.8164412;0.8264926;0.8369675;0.847966;0.8594749;0.8715026;0.8839869;0.8967409;0.9096773;0.9228985;0.9360744;0.9493473;0.9630441;0.9767044;0.9903191;1.0039231;1.0171278;1.0300874;1.0426508;1.0548658;1.0666819;1.0784192;1.0896;1.1001813;1.1100997;1.119226;1.1277837;1.135818;1.1434234;1.1507046;1.1571722;1.1630325;1.1681191;1.1727033;1.1766906;1.1803559;1.1838067;1.1869622;1.1898315;1.1922721;1.1941855;1.1959167;1.1975672;1.1990117;1.2003219;1.2014872;1.2026271;1.2036439;1.2044086;1.2053239;1.2062713;1.2070528;1.2077689;1.2083522;1.2088325;1.2091845;1.2092954;1.2095801;1.2097861;1.2096041;1.2094957;1.209246;1.2089319;1.2085907;1.2081242;1.2074752;1.2069525;1.2063832;1.2058439;1.2053087;1.2045987;1.2040055;1.2034807;1.2030041;1.2025861;1.2020433;1.2014375;1.2006898;1.1998103;1.1989964;1.1981043;1.1971681;1.1963415;1.1953487;1.1942427;1.1930301;1.1919107;1.1907916;1.1896744;1.1886313;1.1874995;1.1863672;1.185135;1.1837937;1.1824939;1.1811672;1.179634;1.1781665;1.1767057;1.1751807;1.1736521;1.1720239;1.1702541;1.1686169;1.1670504;1.1652496;1.1637213;1.1621978;1.1603423;1.1587955;1.1571504;1.1554574;1.1537611;1.1521593;1.1503917;1.1485738;1.1466461;1.1445168;1.1425196;1.1404002;1.1384472;1.1366103;1.134982;1.1331381;1.1312917;1.1294687;1.1276531;1.1257099;1.1236783;1.1217428;1.1196382;1.1176786;1.1158272;1.1142402;1.1123831;1.1105082;1.1085093;1.1062713;1.1042747;1.1023183;1.1003569;1.0985415;1.0966514;1.0947014;1.0927466;1.0906885;1.0887822;1.086987;1.0852365;1.0834963;1.0819864;1.0802411;1.07841;1.0765152;1.0744526;1.0725325;1.0704927;1.0686545;1.067072;1.0654057;1.0637561;1.0621722;1.0605403;1.0588721;1.0571961;1.0554972;1.053867;1.0521799;1.0506126;1.0492358;1.0477329;1.0462029;1.0447035;1.0431955;1.0416312;1.0401099;1.0386928;1.0370886;1.0353253;1.0337267;1.0320694;1.0305225;1.0291679;1.0277021;1.0262569;1.0247344;1.0231969;1.0215776;1.0198929;1.0181319;1.0163423;1.0144937;1.0126095;1.0106194;1.0087371;1.0068756;1.0049812;1.0031322;1.0012586;0.9992779;0.9974042;0.9956396;0.9938144;0.9919859;0.9902164;0.9883153;0.9863135;0.9843704;0.9823461;0.9804441;0.9786349;0.9767816;0.9749237;0.973128;0.9713532;0.9695782;0.9677853;0.9661136;0.9643938;0.962935;0.9613532;0.9598863;0.9583374;0.9567296;0.9550971;0.9534642;0.9518339;0.9500847;0.9484853;0.9470215;0.9454832;0.9438943;0.9424106;0.9409122;0.9395404;0.9381378;0.9368725;0.9354708;0.9339777;0.9325448;0.9310359;0.9297058;0.9284613;0.9272422;0.9262056;0.9250475;0.9238126;0.9226281;0.9213445;0.9202215;0.9191746;0.9182718;0.9173016;0.9164253;0.9154814;0.9144756;0.9135123;0.9125844;0.9116423;0.9106786;0.9097444;0.9087761;0.9079075;0.90718;0.9063399;0.9054816;0.9046466;0.9037566;0.90282;0.9020518;0.9013319;0.9007249;0.9002877;0.8996971;0.899125;0.8985565;0.8979092;0.8972985;0.8967447;0.8961923;0.8955459;0.8950354;0.8946705;0.8942344;0.8938229;0.8934022;0.8930026;0.8927245;0.8923385;0.8920053;0.8916194;0.8910967;0.8907102;0.8903928;0.890095;0.8899087;0.8895606;0.8891672;0.8887802;0.8882102;0.8878201;0.8875766;0.8872966;0.8871698;0.8868661;0.8865585;0.8860164;0.8854444;0.8847975;0.8841904;0.8835706;0.8829606;0.8823234;0.8817385;0.881192;0.8806304;0.8801693;0.8795431;0.8787898;0.8780665;0.8771966;0.8764685;0.8757988;0.8752038;0.8746881;0.8742372;0.873795;0.8732989;0.8728513;0.8723243;0.8718133;0.871303;0.870822;0.8703318;0.8698531;0.8693552;0.8689512;0.8686127;0.8682205;0.8678564;0.8675416;0.8671032;0.8668874;0.8669918;0.8668629;0.866765;0.8665767;0.8661939;0.8657832;0.8656483;0.8655806;0.8656796;0.865904;0.8659657;0.8659347;0.8660992;0.8661665;0.8665688;0.8673157;0.8678825;0.8685706;0.8692085;0.8697417;0.8703867;0.8710726;0.8718188;0.8725817;0.8734639;0.8745385;0.8755052;0.876344;0.8774711;0.878638;0.8799501;0.8816231;0.8832841;0.8846391;0.8862814;0.8880315;0.8899064;0.8916229;0.8934872;0.895232;0.8967079;0.8984268;0.9003179;0.9021776;0.9039937;0.905979;0.9081715;0.9101778;0.9121963;0.9142311;0.9161781;0.9181581;0.9202065;0.9222199;0.9240619;0.9261106;0.9284357;0.9305411;0.9326121;0.934709;0.9367031;0.9386492;0.9406426;0.9426719;0.9445943;0.9463103;0.9482199;0.9501999;0.9521405;0.9541411;0.9560712;0.9580269;0.9597898;0.961284;0.9631444;0.9650157;0.966985;0.9693401;0.9714603;0.9732808;0.9754641;0.9779662;0.9801921;0.982355;0.9847324;0.9870505;0.9894192;0.9920844;0.9946479;0.9971702;0.9995221;1.0019913;1.0041794;1.0061185;1.0078567;1.0095899;1.0107938;1.0115494;1.0119989;1.012053;1.0117896;1.0113099;1.0105035;1.0097322;1.0086074;1.0078048;1.0070533;1.00646;1.0059437;1.0055728;1.005286;1.0052588;1.0052248;1.0058929;1.0073284;1.0082915;1.0095893;1.0106562;1.01108;1.0123225;1.0142295;1.0157449;1.0174108;1.0190691;1.0203259;1.0221409;1.0246009;1.0266485;1.0286522;1.0307802;1.0327451;1.0348576;1.0375642;1.0396136;1.0414248;1.0429101;1.0437058;1.0446814;1.0456063;1.0463036;1.0468129;1.047358;1.0475708;1.0479883;1.0485141;1.0491537;1.0501516;1.050796;1.0510461;1.0517451;1.0525041;1.0532501;1.0546935;1.0556674;1.0559175;1.0563711;1.0576677;1.0594113;1.0605853;1.0625085;1.0632325;1.0625027;1.0635254;1.065064;1.0664551;1.0688736;1.0697725;1.0696925;1.07026;1.0704517;1.070938;1.071516;1.0728786;1.0747088;1.076094;1.0784414;1.0793713;1.0787324;1.0795195;1.0806926;1.0814073;1.0824722;1.0832962;1.0830942;1.0844598;1.0870211;1.0887731;1.0911369;1.0926858;1.0932702;1.0944976;1.0962102;1.0967929;1.0965884;1.0972778;1.0976753;1.0981991;1.098942;1.1007296;1.1026278;1.1048915;1.1095896;1.1115123;1.1115212;1.1125764;1.1122818;1.1142;1.1182855;1.1204381;1.12339;1.1243684;1.1220495;1.1230285;1.1248993;1.1266998;1.131094;1.1325909;1.1317626;1.1323749;1.1322201;1.1335047;1.1363071;1.138043;1.1403166;1.1409854;1.1404796;1.1403861;1.1392623;1.1392443;1.1401603;1.139994;1.1392295;1.1391546;1.1382368;1.1398456;1.1435215;1.1462801;1.1503142;1.1529979;1.1548309;1.1566212;1.1583443;1.1595567;1.1604464;1.1601628;1.1589036;1.1578417;1.1558999;1.1543984;1.1521275;1.1533365;1.1555395;1.1582905;1.1625007;1.1637574;1.1638125;1.1649981;1.1647702;1.1652449;1.1666698;1.1687111;1.1719913;1.1733305;1.171174;1.1692796;1.169048;1.1701199;1.1744385;1.1720209;1.1717745;1.1694731;1.1697706;1.1760451;1.178959;1.1816629;1.1825186;1.1782757;1.1780156;1.1772693;1.1802624;1.1909804;1.1951898;1.2003813;1.2011397;1.193974;1.189783;1.1825711;1.1801422;1.1807003;1.1813704
