350;351;352;353;354;355;356;357;358;359;360;361;362;363;364;365;366;367;368;369;370;371;372;373;374;375;376;377;378;379;380;381;382;383;384;385;386;387;388;389;390;391;392;393;394;395;396;397;398;399;400;401;402;403;404;405;406;407;408;409;410;411;412;413;414;415;416;417;418;419;420;421;422;423;424;425;426;427;428;429;430;431;432;433;434;435;436;437;438;439;440;441;442;443;444;445;446;447;448;449;450;451;452;453;454;455;456;457;458;459;460;461;462;463;464;465;466;467;468;469;470;471;472;473;474;475;476;477;478;479;480;481;482;483;484;485;486;487;488;489;490;491;492;493;494;495;496;497;498;499;500;501;502;503;504;505;506;507;508;509;510;511;512;513;514;515;516;517;518;519;520;521;522;523;524;525;526;527;528;529;530;531;532;533;534;535;536;537;538;539;540;541;542;543;544;545;546;547;548;549;550;551;552;553;554;555;556;557;558;559;560;561;562;563;564;565;566;567;568;569;570;571;572;573;574;575;576;577;578;579;580;581;582;583;584;585;586;587;588;589;590;591;592;593;594;595;596;597;598;599;600;601;602;603;604;605;606;607;608;609;610;611;612;613;614;615;616;617;618;619;620;621;622;623;624;625;626;627;628;629;630;631;632;633;634;635;636;637;638;639;640;641;642;643;644;645;646;647;648;649;650;651;652;653;654;655;656;657;658;659;660;661;662;663;664;665;666;667;668;669;670;671;672;673;674;675;676;677;678;679;680;681;682;683;684;685;686;687;688;689;690;691;692;693;694;695;696;697;698;699;700;701;702;703;704;705;706;707;708;709;710;711;712;713;714;715;716;717;718;719;720;721;722;723;724;725;726;727;728;729;730;731;732;733;734;735;736;737;738;739;740;741;742;743;744;745;746;747;748;749;750;751;752;753;754;755;756;757;758;759;760;761;762;763;764;765;766;767;768;769;770;771;772;773;774;775;776;777;778;779;780;781;782;783;784;785;786;787;788;789;790;791;792;793;794;795;796;797;798;799;800;801;802;803;804;805;806;807;808;809;810;811;812;813;814;815;816;817;818;819;820;821;822;823;824;825;826;827;828;829;830;831;832;833;834;835;836;837;838;839;840;841;842;843;844;845;846;847;848;849;850;851;852;853;854;855;856;857;858;859;860;861;862;863;864;865;866;867;868;869;870;871;872;873;874;875;876;877;878;879;880;881;882;883;884;885;886;887;888;889;890;891;892;893;894;895;896;897;898;899;900;901;902;903;904;905;906;907;908;909;910;911;912;913;914;915;916;917;918;919;920;921;922;923;924;925;926;927;928;929;930;931;932;933;934;935;936;937;938;939;940;941;942;943;944;945;946;947;948;949;950;951;952;953;954;955;956;957;958;959;960;961;962;963;964;965;966;967;968;969;970;971;972;973;974;975;976;977;978;979;980;981;982;983;984;985;986;987;988;989;990;991;992;993;994;995;996;997;998;999;1000;1001;1002;1003;1004;1005;1006;1007;1008;1009;1010;1011;1012;1013;1014;1015;1016;1017;1018;1019;1020;1021;1022;1023;1024;1025;1026;1027;1028;1029;1030;1031;1032;1033;1034;1035;1036;1037;1038;1039;1040;1041;1042;1043;1044;1045;1046;1047;1048;1049;1050;1051;1052;1053;1054;1055;1056;1057;1058;1059;1060;1061;1062;1063;1064;1065;1066;1067;1068;1069;1070;1071;1072;1073;1074;1075;1076;1077;1078;1079;1080;1081;1082;1083;1084;1085;1086;1087;1088;1089;1090;1091;1092;1093;1094;1095;1096;1097;1098;1099;1100;1101;1102;1103;1104;1105;1106;1107;1108;1109;1110;1111;1112;1113;1114;1115;1116;1117;1118;1119;1120;1121;1122;1123;1124;1125;1126;1127;1128;1129;1130;1131;1132;1133;1134;1135;1136;1137;1138;1139;1140;1141;1142;1143;1144;1145;1146;1147;1148;1149;1150;1151;1152;1153;1154;1155;1156;1157;1158;1159;1160;1161;1162;1163;1164;1165;1166;1167;1168;1169;1170;1171;1172;1173;1174;1175;1176;1177;1178;1179;1180;1181;1182;1183;1184;1185;1186;1187;1188;1189;1190;1191;1192;1193;1194;1195;1196;1197;1198;1199;1200;1201;1202;1203;1204;1205;1206;1207;1208;1209;1210;1211;1212;1213;1214;1215;1216;1217;1218;1219;1220;1221;1222;1223;1224;1225;1226;1227;1228;1229;1230;1231;1232;1233;1234;1235;1236;1237;1238;1239;1240;1241;1242;1243;1244;1245;1246;1247;1248;1249;1250;1251;1252;1253;1254;1255;1256;1257;1258;1259;1260;1261;1262;1263;1264;1265;1266;1267;1268;1269;1270;1271;1272;1273;1274;1275;1276;1277;1278;1279;1280;1281;1282;1283;1284;1285;1286;1287;1288;1289;1290;1291;1292;1293;1294;1295;1296;1297;1298;1299;1300;1301;1302;1303;1304;1305;1306;1307;1308;1309;1310;1311;1312;1313;1314;1315;1316;1317;1318;1319;1320;1321;1322;1323;1324;1325;1326;1327;1328;1329;1330;1331;1332;1333;1334;1335;1336;1337;1338;1339;1340;1341;1342;1343;1344;1345;1346;1347;1348;1349;1350;1351;1352;1353;1354;1355;1356;1357;1358;1359;1360;1361;1362;1363;1364;1365;1366;1367;1368;1369;1370;1371;1372;1373;1374;1375;1376;1377;1378;1379;1380;1381;1382;1383;1384;1385;1386;1387;1388;1389;1390;1391;1392;1393;1394;1395;1396;1397;1398;1399;1400;1401;1402;1403;1404;1405;1406;1407;1408;1409;1410;1411;1412;1413;1414;1415;1416;1417;1418;1419;1420;1421;1422;1423;1424;1425;1426;1427;1428;1429;1430;1431;1432;1433;1434;1435;1436;1437;1438;1439;1440;1441;1442;1443;1444;1445;1446;1447;1448;1449;1450;1451;1452;1453;1454;1455;1456;1457;1458;1459;1460;1461;1462;1463;1464;1465;1466;1467;1468;1469;1470;1471;1472;1473;1474;1475;1476;1477;1478;1479;1480;1481;1482;1483;1484;1485;1486;1487;1488;1489;1490;1491;1492;1493;1494;1495;1496;1497;1498;1499;1500;1501;1502;1503;1504;1505;1506;1507;1508;1509;1510;1511;1512;1513;1514;1515;1516;1517;1518;1519;1520;1521;1522;1523;1524;1525;1526;1527;1528;1529;1530;1531;1532;1533;1534;1535;1536;1537;1538;1539;1540;1541;1542;1543;1544;1545;1546;1547;1548;1549;1550;1551;1552;1553;1554;1555;1556;1557;1558;1559;1560;1561;1562;1563;1564;1565;1566;1567;1568;1569;1570;1571;1572;1573;1574;1575;1576;1577;1578;1579;1580;1581;1582;1583;1584;1585;1586;1587;1588;1589;1590;1591;1592;1593;1594;1595;1596;1597;1598;1599;1600;1601;1602;1603;1604;1605;1606;1607;1608;1609;1610;1611;1612;1613;1614;1615;1616;1617;1618;1619;1620;1621;1622;1623;1624;1625;1626;1627;1628;1629;1630;1631;1632;1633;1634;1635;1636;1637;1638;1639;1640;1641;1642;1643;1644;1645;1646;1647;1648;1649;1650;1651;1652;1653;1654;1655;1656;1657;1658;1659;1660;1661;1662;1663;1664;1665;1666;1667;1668;1669;1670;1671;1672;1673;1674;1675;1676;1677;1678;1679;1680;1681;1682;1683;1684;1685;1686;1687;1688;1689;1690;1691;1692;1693;1694;1695;1696;1697;1698;1699;1700;1701;1702;1703;1704;1705;1706;1707;1708;1709;1710;1711;1712;1713;1714;1715;1716;1717;1718;1719;1720;1721;1722;1723;1724;1725;1726;1727;1728;1729;1730;1731;1732;1733;1734;1735;1736;1737;1738;1739;1740;1741;1742;1743;1744;1745;1746;1747;1748;1749;1750;1751;1752;1753;1754;1755;1756;1757;1758;1759;1760;1761;1762;1763;1764;1765;1766;1767;1768;1769;1770;1771;1772;1773;1774;1775;1776;1777;1778;1779;1780;1781;1782;1783;1784;1785;1786;1787;1788;1789;1790;1791;1792;1793;1794;1795;1796;1797;1798;1799;1800;1801;1802;1803;1804;1805;1806;1807;1808;1809;1810;1811;1812;1813;1814;1815;1816;1817;1818;1819;1820;1821;1822;1823;1824;1825;1826;1827;1828;1829;1830;1831;1832;1833;1834;1835;1836;1837;1838;1839;1840;1841;1842;1843;1844;1845;1846;1847;1848;1849;1850;1851;1852;1853;1854;1855;1856;1857;1858;1859;1860;1861;1862;1863;1864;1865;1866;1867;1868;1869;1870;1871;1872;1873;1874;1875;1876;1877;1878;1879;1880;1881;1882;1883;1884;1885;1886;1887;1888;1889;1890;1891;1892;1893;1894;1895;1896;1897;1898;1899;1900;1901;1902;1903;1904;1905;1906;1907;1908;1909;1910;1911;1912;1913;1914;1915;1916;1917;1918;1919;1920;1921;1922;1923;1924;1925;1926;1927;1928;1929;1930;1931;1932;1933;1934;1935;1936;1937;1938;1939;1940;1941;1942;1943;1944;1945;1946;1947;1948;1949;1950;1951;1952;1953;1954;1955;1956;1957;1958;1959;1960;1961;1962;1963;1964;1965;1966;1967;1968;1969;1970;1971;1972;1973;1974;1975;1976;1977;1978;1979;1980;1981;1982;1983;1984;1985;1986;1987;1988;1989;1990;1991;1992;1993;1994;1995;1996;1997;1998;1999;2000;2001;2002;2003;2004;2005;2006;2007;2008;2009;2010;2011;2012;2013;2014;2015;2016;2017;2018;2019;2020;2021;2022;2023;2024;2025;2026;2027;2028;2029;2030;2031;2032;2033;2034;2035;2036;2037;2038;2039;2040;2041;2042;2043;2044;2045;2046;2047;2048;2049;2050;2051;2052;2053;2054;2055;2056;2057;2058;2059;2060;2061;2062;2063;2064;2065;2066;2067;2068;2069;2070;2071;2072;2073;2074;2075;2076;2077;2078;2079;2080;2081;2082;2083;2084;2085;2086;2087;2088;2089;2090;2091;2092;2093;2094;2095;2096;2097;2098;2099;2100;2101;2102;2103;2104;2105;2106;2107;2108;2109;2110;2111;2112;2113;2114;2115;2116;2117;2118;2119;2120;2121;2122;2123;2124;2125;2126;2127;2128;2129;2130;2131;2132;2133;2134;2135;2136;2137;2138;2139;2140;2141;2142;2143;2144;2145;2146;2147;2148;2149;2150;2151;2152;2153;2154;2155;2156;2157;2158;2159;2160;2161;2162;2163;2164;2165;2166;2167;2168;2169;2170;2171;2172;2173;2174;2175;2176;2177;2178;2179;2180;2181;2182;2183;2184;2185;2186;2187;2188;2189;2190;2191;2192;2193;2194;2195;2196;2197;2198;2199;2200;2201;2202;2203;2204;2205;2206;2207;2208;2209;2210;2211;2212;2213;2214;2215;2216;2217;2218;2219;2220;2221;2222;2223;2224;2225;2226;2227;2228;2229;2230;2231;2232;2233;2234;2235;2236;2237;2238;2239;2240;2241;2242;2243;2244;2245;2246;2247;2248;2249;2250;2251;2252;2253;2254;2255;2256;2257;2258;2259;2260;2261;2262;2263;2264;2265;2266;2267;2268;2269;2270;2271;2272;2273;2274;2275;2276;2277;2278;2279;2280;2281;2282;2283;2284;2285;2286;2287;2288;2289;2290;2291;2292;2293;2294;2295;2296;2297;2298;2299;2300;2301;2302;2303;2304;2305;2306;2307;2308;2309;2310;2311;2312;2313;2314;2315;2316;2317;2318;2319;2320;2321;2322;2323;2324;2325;2326;2327;2328;2329;2330;2331;2332;2333;2334;2335;2336;2337;2338;2339;2340;2341;2342;2343;2344;2345;2346;2347;2348;2349;2350;2351;2352;2353;2354;2355;2356;2357;2358;2359;2360;2361;2362;2363;2364;2365;2366;2367;2368;2369;2370;2371;2372;2373;2374;2375;2376;2377;2378;2379;2380;2381;2382;2383;2384;2385;2386;2387;2388;2389;2390;2391;2392;2393;2394;2395;2396;2397;2398;2399;2400;2401;2402;2403;2404;2405;2406;2407;2408;2409;2410;2411;2412;2413;2414;2415;2416;2417;2418;2419;2420;2421;2422;2423;2424;2425;2426;2427;2428;2429;2430;2431;2432;2433;2434;2435;2436;2437;2438;2439;2440;2441;2442;2443;2444;2445;2446;2447;2448;2449;2450;2451;2452;2453;2454;2455;2456;2457;2458;2459;2460;2461;2462;2463;2464;2465;2466;2467;2468;2469;2470;2471;2472;2473;2474;2475;2476;2477;2478;2479;2480;2481;2482;2483;2484;2485;2486;2487;2488;2489;2490;2491;2492;2493;2494;2495;2496;2497;2498;2499;2500
1.2441322;1.1689447;1.105324;1.271171;1.2380153;1.1504029;1.120381;1.1779958;1.1511368;1.1317986;1.1371847;1.0924975;1.0759469;1.0897673;1.1161299;1.1166546;1.0987457;1.0793295;1.0703447;1.0640981;1.05638;1.0596747;1.0884203;1.0742434;1.0661639;1.0779279;1.0694633;1.0739721;1.0751789;1.0621985;1.0599588;1.0588455;1.060472;1.0666749;1.0577321;1.0540202;1.0566149;1.0510646;1.0569512;1.0607438;1.0547501;1.0497577;1.0520202;1.0540836;1.0483253;1.0420828;1.0414437;1.0456545;1.0493431;1.0465722;1.0433868;1.0424422;1.0404435;1.0397553;1.0377004;1.0334008;1.0335016;1.034389;1.0353634;1.0368123;1.0378166;1.0371288;1.0351806;1.0339748;1.0346648;1.0342635;1.0316272;1.0308064;1.034029;1.0338141;1.0245003;1.0257759;1.0259875;1.0224075;1.0207428;1.0236979;1.0239813;1.0196604;1.0212735;1.0217191;1.0206949;1.0197037;1.0186847;1.0184808;1.0184987;1.0173827;1.0175149;1.0174121;1.0162367;1.0150402;1.0136075;1.0133418;1.0146815;1.0127254;1.0109764;1.0109525;1.0122299;1.0106356;1.0096241;1.0103077;1.0080146;1.0083053;1.0096036;1.0088687;1.0060315;1.0046175;1.0048515;1.0045203;1.003607;1.0031925;1.0033447;1.00187;1.0014572;1.0013599;1.000356;1.000457;1.0001531;0.9992297;0.9986356;0.9981703;0.9976267;0.9969468;0.99637;0.9962822;0.9957492;0.9939802;0.9936719;0.9935889;0.9931422;0.9926088;0.9917873;0.9909695;0.9905025;0.9908078;0.9901083;0.9886848;0.9876961;0.9870715;0.9864805;0.9856688;0.9845302;0.9845899;0.9844717;0.983099;0.9824675;0.9823949;0.9818828;0.979888;0.9793534;0.9791868;0.9786059;0.9780128;0.9775286;0.977009;0.9762779;0.9753904;0.9744176;0.9735242;0.9729269;0.9726293;0.9723273;0.9717128;0.9703977;0.9704278;0.9707156;0.9695494;0.9684647;0.9682364;0.9682094;0.9665002;0.9656623;0.9654037;0.9650154;0.9642727;0.9636533;0.9630651;0.9622074;0.9614981;0.9609061;0.9603525;0.9597649;0.958862;0.9580768;0.9578022;0.9576519;0.9570906;0.9561959;0.955474;0.954788;0.9544158;0.9543502;0.9539472;0.9532682;0.9527338;0.9526826;0.9521686;0.951539;0.9510877;0.9509469;0.950866;0.9505192;0.9497797;0.9489781;0.9488798;0.9488641;0.9477472;0.9466029;0.9458014;0.9453137;0.9446458;0.9440284;0.9436337;0.9434711;0.9428732;0.9425161;0.942453;0.9421645;0.9420341;0.9417018;0.9409662;0.9402158;0.9401522;0.9402808;0.9397472;0.9395993;0.9393276;0.938578;0.9373803;0.9366976;0.9364086;0.9361565;0.935955;0.9356179;0.9351923;0.9348566;0.9341176;0.9334678;0.9332167;0.9330739;0.9329902;0.932932;0.932833;0.9323633;0.9317915;0.9312927;0.9308896;0.9304842;0.930059;0.929626;0.9292349;0.9286993;0.9281738;0.9279227;0.9272168;0.9266464;0.9264144;0.9257963;0.9252363;0.9248069;0.9244527;0.9240996;0.9236857;0.9231962;0.9226591;0.9219861;0.9215022;0.9213266;0.9208627;0.9205273;0.9201737;0.9195057;0.9192613;0.9189632;0.9184327;0.9180772;0.9176272;0.9170831;0.9165547;0.9162784;0.9160578;0.9157485;0.9152656;0.9146332;0.9140515;0.9136128;0.9131268;0.9125835;0.9120122;0.9114746;0.9110402;0.9107421;0.9104605;0.9099185;0.9092466;0.9086678;0.9082727;0.9076861;0.9071941;0.9067263;0.9060562;0.9055603;0.9051034;0.9045987;0.904135;0.9035869;0.9030376;0.9026011;0.9022506;0.9016565;0.9009646;0.900674;0.9000848;0.8993374;0.8986654;0.8982137;0.8976393;0.8969016;0.8961565;0.8959141;0.8954446;0.8946185;0.8940964;0.8936722;0.893203;0.8926169;0.8920435;0.8912851;0.8904797;0.8899245;0.8894807;0.8890287;0.8884838;0.8878046;0.88718;0.8867008;0.8863593;0.8859817;0.8852547;0.8843355;0.8837135;0.8832371;0.8825784;0.8817334;0.8814041;0.8807943;0.8800028;0.8793924;0.8790174;0.8782232;0.8771412;0.8766199;0.8760484;0.8753607;0.8746108;0.8738921;0.8731411;0.8724077;0.8717879;0.8713637;0.8707502;0.8699665;0.8694849;0.8686864;0.8678401;0.8672219;0.8665954;0.8658859;0.8650491;0.8641384;0.8637239;0.8631419;0.8622522;0.8616839;0.8612185;0.8605266;0.8595018;0.8587418;0.8584505;0.8581503;0.8571665;0.8564223;0.8558608;0.8552995;0.8545364;0.8536867;0.8530635;0.8527315;0.8518232;0.8510075;0.8504438;0.8499633;0.8493114;0.8484029;0.8474005;0.8467476;0.8461108;0.8454778;0.8449103;0.844482;0.8439302;0.8432207;0.8424807;0.8419921;0.8412918;0.8402756;0.83937;0.8387927;0.8383453;0.8377387;0.836715;0.8359348;0.835484;0.8351095;0.8344796;0.8338228;0.8332332;0.8326001;0.8318199;0.8309777;0.83024;0.8299428;0.8293307;0.8283746;0.8274086;0.8268963;0.8264652;0.8258812;0.82511;0.8243835;0.8236389;0.8228855;0.822383;0.8217916;0.8210484;0.8202134;0.8194099;0.8187307;0.8181644;0.8176208;0.8170072;0.8163242;0.8156014;0.8148918;0.814308;0.8137852;0.81318;0.8122468;0.8115242;0.8110535;0.8106077;0.8099393;0.8091708;0.808472;0.8079907;0.8074591;0.8067252;0.8058722;0.8053829;0.8047796;0.8040798;0.8034112;0.8027506;0.8019944;0.8012922;0.8008403;0.8000818;0.7992405;0.7985262;0.7980198;0.7973474;0.7966384;0.7959913;0.7952389;0.7945186;0.7939627;0.7935502;0.7927212;0.7919704;0.7914288;0.7909607;0.7903031;0.7894969;0.78866;0.7879407;0.78727;0.7865551;0.7857649;0.7850003;0.7842842;0.7836351;0.7830356;0.7823868;0.7817727;0.7811952;0.7805965;0.7797968;0.7791051;0.7785506;0.7779027;0.7771238;0.7764369;0.7758716;0.7751375;0.7745132;0.7739002;0.7732207;0.7726454;0.7720565;0.7713588;0.7705548;0.7699597;0.7693887;0.7687404;0.767992;0.7672586;0.766662;0.766111;0.7653741;0.7648392;0.7642;0.7633601;0.7626249;0.7619591;0.7613076;0.7606143;0.7598314;0.759182;0.7584112;0.7574013;0.756957;0.7562958;0.7554318;0.7547011;0.7542015;0.7536084;0.7528472;0.7520476;0.7513954;0.7507311;0.7500315;0.749397;0.7486225;0.7478011;0.7470704;0.746556;0.7460759;0.7454535;0.7446681;0.7439507;0.7433597;0.7428017;0.7422194;0.7417693;0.7409821;0.7401996;0.739735;0.738925;0.7381168;0.7375011;0.7370634;0.7362553;0.7355357;0.7349832;0.7344369;0.7337487;0.7331161;0.7325126;0.7317955;0.7312007;0.7305112;0.7297326;0.7290563;0.7283221;0.7276333;0.7270715;0.7266463;0.7261781;0.7253925;0.7243634;0.7235583;0.7230172;0.7225354;0.7219597;0.7212989;0.7206677;0.7200272;0.7193738;0.7187939;0.7180011;0.7172696;0.7167406;0.7161157;0.7151821;0.7144527;0.7141614;0.7136782;0.7129666;0.7122799;0.7116615;0.7105604;0.7096777;0.7091519;0.7087925;0.7080933;0.7074508;0.7068306;0.7061975;0.705772;0.705535;0.7050578;0.7041942;0.7036744;0.703072;0.7023965;0.701718;0.7009634;0.7003989;0.6998843;0.6992727;0.6986611;0.6981065;0.6975498;0.6970358;0.6968865;0.696057;0.6951632;0.6945656;0.6933688;0.6927572;0.6923763;0.6918478;0.6913856;0.6903501;0.6898839;0.6899442;0.6884264;0.6878116;0.6873961;0.6866114;0.6858701;0.6854581;0.684799;0.6838387;0.6832094;0.6828938;0.6821119;0.6810143;0.6805181;0.6799419;0.6792341;0.6784306;0.6740568;0.6733279;0.6726278;0.6720008;0.6713901;0.6708176;0.6702131;0.6696568;0.6690466;0.6683634;0.6677553;0.6671991;0.6665991;0.6659828;0.6653927;0.6648182;0.6641976;0.6635603;0.6629834;0.6622531;0.6615083;0.6608847;0.6602991;0.6596987;0.659206;0.6586476;0.6580131;0.657463;0.657019;0.6564234;0.6557824;0.6551169;0.6544134;0.6537111;0.6530807;0.6525056;0.6518516;0.6511609;0.6505153;0.6498502;0.6491778;0.6485206;0.6478544;0.6471777;0.646517;0.6459137;0.6452315;0.6444381;0.6436311;0.6428497;0.642167;0.6416074;0.6410233;0.6403846;0.6396871;0.6390347;0.6383879;0.6377417;0.6371172;0.636475;0.6358155;0.6351599;0.6344784;0.6337925;0.6331736;0.6324341;0.6316589;0.6309829;0.6302534;0.6295165;0.6288596;0.6283208;0.6277043;0.6271014;0.6264774;0.6258435;0.6251418;0.624511;0.6239254;0.6233127;0.6227026;0.6220509;0.6214021;0.6208948;0.6203646;0.6197672;0.6192228;0.6186582;0.6180061;0.6174549;0.6170025;0.6164427;0.6158401;0.6152666;0.6146544;0.6140777;0.6135913;0.613054;0.6124877;0.6119737;0.6114066;0.6108541;0.610305;0.6096843;0.6091496;0.608625;0.6081147;0.6075932;0.6071224;0.6065807;0.6060109;0.6054987;0.6049988;0.6045002;0.6040075;0.6034647;0.602895;0.6023579;0.6018648;0.6013874;0.600848;0.6003342;0.5998687;0.5994083;0.5989484;0.5985715;0.5981961;0.5977386;0.597319;0.5969435;0.596512;0.5961639;0.5958392;0.5954674;0.5951778;0.594851;0.5945153;0.5942522;0.5940698;0.5938337;0.5936281;0.5933968;0.5931156;0.5928798;0.5926887;0.5924549;0.5922883;0.5921181;0.5918775;0.5916862;0.591487;0.5912392;0.5910204;0.5908064;0.5905381;0.5902206;0.5899168;0.5895931;0.5892498;0.5889108;0.5885474;0.588141;0.587745;0.587361;0.5869727;0.5866084;0.5862178;0.5858153;0.5854247;0.585023;0.5846108;0.5841933;0.5837582;0.583363;0.5829847;0.5825837;0.5821975;0.58181;0.5813715;0.5809964;0.5806793;0.5803506;0.5799948;0.5796427;0.5792604;0.5788679;0.5785319;0.5782152;0.5778451;0.577462;0.5770715;0.576633;0.5762224;0.5758271;0.5754366;0.5750414;0.5746514;0.574283;0.5738963;0.5735047;0.5731276;0.5726682;0.5721748;0.5716817;0.5711494;0.570659;0.5702164;0.5697456;0.5692798;0.5688;0.5683237;0.5678047;0.5672597;0.5667095;0.5661359;0.5655628;0.5649838;0.5643895;0.5637652;0.563159;0.5625404;0.5619655;0.56138;0.5607486;0.5601373;0.5595229;0.558884;0.5582222;0.5576068;0.556983;0.556381;0.5558202;0.5552567;0.554678;0.5541322;0.5536243;0.5531092;0.5525914;0.5520956;0.5516283;0.5511528;0.5506974;0.5502197;0.5497597;0.5492607;0.5487899;0.548332;0.5478677;0.5473962;0.5469424;0.5464931;0.5460488;0.5456145;0.5451895;0.5447756;0.5443552;0.5439301;0.5435255;0.5431261;0.5427307;0.5423605;0.541982;0.5416052;0.5412149;0.5408288;0.5404383;0.5400694;0.5397193;0.5393303;0.5389342;0.5385494;0.5381328;0.537748;0.5374025;0.5370361;0.5366491;0.5362912;0.5359446;0.5356081;0.5353003;0.5349783;0.5346539;0.5343344;0.534007;0.5336916;0.5333864;0.5330849;0.5327916;0.532502;0.5322309;0.5319769;0.5317112;0.5314494;0.5311969;0.5309383;0.5306972;0.5304684;0.5302545;0.5300514;0.5298535;0.5296818;0.5294989;0.5292998;0.5291263;0.5289559;0.5288046;0.528697;0.5285643;0.528416;0.5282818;0.5281755;0.5280608;0.5279898;0.5279718;0.5279307;0.5278951;0.5278636;0.5278278;0.5278136;0.5278098;0.5278162;0.5278347;0.5278696;0.5279056;0.5279701;0.5280549;0.5281605;0.5283166;0.5284391;0.5285494;0.5286782;0.5287931;0.5289198;0.5290863;0.5292779;0.5294468;0.529621;0.5297967;0.5299571;0.530151;0.5303734;0.5305728;0.5307765;0.5309853;0.5311832;0.5313895;0.5316086;0.5318279;0.5320389;0.5322699;0.5325265;0.5327643;0.5330085;0.5332398;0.533448;0.5336732;0.5339094;0.5341218;0.5343539;0.5346241;0.5349154;0.535247;0.5355996;0.5359615;0.5363697;0.53679;0.5372735;0.5378035;0.5383857;0.5389951;0.5396881;0.5404301;0.5412569;0.5421454;0.5431518;0.544236;0.5454358;0.5467488;0.5481544;0.5496317;0.5512754;0.5530583;0.5549495;0.5569746;0.5591229;0.5614049;0.5637441;0.5661887;0.5687606;0.5713956;0.5740989;0.5768404;0.5796173;0.582434;0.5853121;0.5881079;0.5909495;0.5937068;0.5963883;0.5990396;0.6017056;0.6042296;0.6066723;0.6090032;0.6112069;0.613374;0.6154885;0.6174591;0.6193491;0.6211168;0.6227528;0.6242594;0.6256382;0.6269388;0.628118;0.6291922;0.6301572;0.6310503;0.6318421;0.6325119;0.6331348;0.633702;0.6341746;0.6346009;0.6349813;0.6352746;0.6355178;0.6357115;0.6358617;0.6359592;0.6360471;0.6361002;0.6361052;0.6360855;0.6360283;0.6359095;0.6357874;0.6356623;0.6354817;0.6352365;0.6350216;0.6347841;0.6345462;0.6343272;0.634093;0.6338356;0.6335781;0.6333272;0.6330501;0.6327548;0.632458;0.6321297;0.6318243;0.6314895;0.6311345;0.6307811;0.6303928;0.6300191;0.6296593;0.6292917;0.6288975;0.6284605;0.627983;0.6274428;0.6268754;0.6262895;0.6256399;0.6249342;0.6241623;0.6233991;0.6225895;0.6217663;0.6209254;0.6200966;0.6192334;0.6183901;0.6175772;0.6167532;0.6159292;0.615073;0.6142172;0.6133304;0.6124;0.6114762;0.6105186;0.6096092;0.6087264;0.6078234;0.6069498;0.606055;0.6051359;0.6042054;0.6032539;0.6023279;0.6014009;0.6004679;0.5995721;0.5986498;0.5977056;0.5967566;0.5957978;0.5948864;0.5939803;0.5930698;0.5921693;0.5912399;0.59031;0.5894011;0.5885136;0.5876592;0.5868299;0.5859852;0.5851201;0.5842419;0.5833586;0.5824877;0.5816064;0.5807323;0.5798496;0.5789388;0.5780683;0.5772122;0.5763664;0.5755512;0.5747121;0.5738721;0.5730431;0.572196;0.5713814;0.5705846;0.5697915;0.569029;0.5682469;0.5674453;0.5666821;0.5659146;0.5651779;0.5645062;0.563793;0.5630865;0.562354;0.5615699;0.5608246;0.5600919;0.5593507;0.5586259;0.5579025;0.5571579;0.5564336;0.555738;0.5550308;0.5543044;0.5536147;0.5529199;0.5522653;0.5516748;0.5510623;0.5504541;0.5498632;0.5492758;0.5486807;0.5481446;0.5476228;0.5470946;0.546577;0.546023;0.5454775;0.5449319;0.5443658;0.5438052;0.5432239;0.5426596;0.5421251;0.5416086;0.5411212;0.54064;0.5401484;0.5396685;0.5391877;0.5386886;0.5381765;0.5376437;0.5371253;0.5366195;0.5361226;0.5356345;0.5351499;0.5346859;0.5342094;0.5337337;0.5332752;0.5328059;0.5323213;0.5318282;0.5313324;0.5308176;0.5303253;0.5298944;0.5294673;0.5290575;0.5286862;0.5283033;0.5279126;0.5275393;0.5271538;0.5267212;0.5262959;0.5259023;0.5254982;0.5251418;0.524815;0.5244405;0.5240809;0.5237376;0.523379;0.5230653;0.5227551;0.5224233;0.522085;0.5217599;0.5214158;0.5211015;0.5208222;0.5205086;0.5202017;0.5198555;0.5194568;0.5191268;0.518794;0.5184993;0.518277;0.5179902;0.5176818;0.5173906;0.5170825;0.5167975;0.5165237;0.5162716;0.5160327;0.5158058;0.5156083;0.515399;0.5151799;0.514987;0.5147973;0.5146596;0.5145643;0.514439;0.5143366;0.5142204;0.5140724;0.5139858;0.5139092;0.5138832;0.5138725;0.5138277;0.5137994;0.5137684;0.5137224;0.5137414;0.5138239;0.5139171;0.5140073;0.5141159;0.514246;0.5143863;0.5145639;0.514787;0.5149947;0.5152086;0.5154471;0.5156575;0.5159017;0.5161911;0.5164788;0.5167856;0.5171222;0.5174842;0.517908;0.518406;0.5189135;0.5194623;0.5200154;0.5205977;0.5211778;0.5217579;0.5223462;0.5229605;0.5235488;0.5241289;0.5247059;0.5252792;0.5258221;0.5263503;0.5268671;0.5273087;0.5278212;0.5283862;0.5289258;0.5294969;0.5300488;0.5305344;0.5310962;0.5317186;0.5323141;0.5329473;0.5335516;0.5341226;0.5346997;0.535291;0.5358513;0.5363774;0.5369252;0.537482;0.538003;0.5385276;0.5390208;0.5394683;0.5399159;0.5403645;0.5407792;0.5411924;0.5415267;0.5418267;0.5420567;0.5422491;0.5423;0.5422749;0.5421302;0.5418125;0.5415144;0.5411452;0.5407634;0.5403407;0.5399157;0.5394256;0.5390488;0.538678;0.5384256;0.5382733;0.5381331;0.5380565;0.5379699;0.5379776;0.5380889;0.5382156;0.5384635;0.5387093;0.5389847;0.539274;0.5395682;0.5398996;0.5402812;0.5406438;0.5410722;0.5414125;0.541733;0.5419652;0.5420797;0.5422181;0.5422988;0.5423849;0.5425214;0.5425562;0.5425372;0.5424687;0.5422871;0.5421693;0.5420382;0.541924;0.5418479;0.5417451;0.5416303;0.541508;0.541379;0.5412448;0.5410777;0.5409785;0.5409142;0.5408292;0.5407696;0.5406866;0.5406175;0.5405474;0.540495;0.5404481;0.5404079;0.5404019;0.5404348;0.54049;0.5405169;0.5405675;0.5405642;0.5405109;0.5404564;0.5403807;0.5402887;0.5401777;0.5400559;0.5399027;0.5486671;0.5485522;0.5484419;0.5482513;0.5480798;0.5479787;0.5478157;0.547574;0.5473472;0.5471185;0.5469494;0.5466301;0.546216;0.5458539;0.5453765;0.5450227;0.544708;0.5444571;0.5442904;0.5441145;0.5439529;0.5438502;0.5437158;0.5435137;0.5434302;0.5434373;0.5433959;0.5433636;0.5433911;0.5433819;0.5433285;0.5432788;0.5431957;0.5431934;0.543182;0.5432286;0.5433465;0.5435065;0.5437294;0.5438608;0.5441513;0.5444957;0.5448867;0.545356;0.5458476;0.5463254;0.5469254;0.5475816;0.5483117;0.5491266;0.5500371;0.5509613;0.5519161;0.5530144;0.5542234;0.5555033;0.5568984;0.5583396;0.5598524;0.5614033;0.5630386;0.5648476;0.5667518;0.5688068;0.5709699;0.5731941;0.5756708;0.5783538;0.581106;0.5840748;0.5873222;0.5906845;0.5942458;0.5979202;0.601589;0.6054245;0.609359;0.6133565;0.6174852;0.6217747;0.6259899;0.6301789;0.6343768;0.6384941;0.6426468;0.6467704;0.6507832;0.6547602;0.6586742;0.6624159;0.6660756;0.6696213;0.6730518;0.6763963;0.6795382;0.6825036;0.685353;0.6879801;0.6904174;0.6926364;0.6947433;0.69669;0.6984518;0.7001275;0.7016263;0.7030075;0.7044105;0.7056667;0.7067789;0.7077554;0.7086016;0.7092226;0.7097606;0.7103153;0.7108713;0.7113526;0.7118179;0.7122331;0.7125395;0.712809;0.7130189;0.7131398;0.7132703;0.7133685;0.7134244;0.7134826;0.7134942;0.7134699;0.7134374;0.7133422;0.7132196;0.7130845;0.7129487;0.7127164;0.7124264;0.712129;0.7117985;0.7114015;0.7110358;0.7106701;0.7101745;0.7096492;0.7091325;0.7085738;0.7080409;0.7075284;0.7069799;0.7064157;0.7058779;0.7052498;0.7045861;0.7039669;0.7032779;0.7026265;0.7020208;0.7013697;0.700699;0.700021;0.6992971;0.6985946;0.6978922;0.6972187;0.6964905;0.6958303;0.69517;0.6945289;0.6938578;0.6931992;0.6925286;0.6918522;0.6911524;0.6904606;0.689721;0.6889754;0.6881645;0.6873615;0.6866211;0.6858313;0.6850427;0.6842312;0.6833693;0.6825277;0.6816571;0.680845;0.6800786;0.6793107;0.6786042;0.6778355;0.6770715;0.6762747;0.675512;0.6747755;0.6739995;0.6732096;0.6724395;0.6716296;0.670859;0.670112;0.6693866;0.6686735;0.6680254;0.6672901;0.6665219;0.6658117;0.6650559;0.6643704;0.6637753;0.6631639;0.6625463;0.6619482;0.6614318;0.6608362;0.6601847;0.6595745;0.6589261;0.6581942;0.657582;0.6570017;0.6564583;0.6559954;0.6554993;0.6550282;0.6545381;0.6539974;0.6535324;0.6531103;0.6526788;0.6522666;0.6519212;0.6515046;0.6510155;0.6506361;0.6503037;0.649947;0.6496447;0.6493138;0.64893;0.6485867;0.6482551;0.6479571;0.6476816;0.6474402;0.6471556;0.6468846;0.6466057;0.6462693;0.6460073;0.6458246;0.645571;0.6453117;0.6450447;0.6447847;0.6444539;0.6441074;0.6437202;0.6432855;0.6427593;0.6422701;0.6417658;0.6412628;0.6407714;0.640221;0.6396828;0.6390563;0.6383318;0.6376252;0.6368652;0.6361166;0.6353354;0.6345981;0.6338781;0.6331542;0.6324761;0.6318356;0.6312236;0.6306196;0.6300776;0.629594;0.6291231;0.6287483;0.62829;0.627791;0.6273268;0.6268237;0.6263518;0.6259332;0.6255256;0.6250648;0.6245539;0.6241142;0.6236489;0.6232561;0.6229729;0.6226131;0.6222679;0.6218851;0.6214557;0.6210288;0.6205672;0.6201341;0.6196756;0.6192703;0.618897;0.6185753;0.618208;0.6178655;0.6175084;0.6170803;0.6167571;0.6164481;0.6162158;0.6161085;0.6159467;0.6158279;0.6156903;0.6155038;0.6153488;0.6152535;0.6150997;0.6149315;0.6147529;0.6145666;0.6143439;0.6141406;0.6139152;0.6137522;0.6135982;0.6134785;0.613425;0.6133721;0.6133156;0.6133045;0.6133637;0.6133803;0.6134034;0.6134104;0.6134567;0.6134463;0.6134896;0.6135872;0.6136416;0.6136894;0.6137377;0.6137347;0.6138231;0.6140397;0.6140857;0.6141027;0.6140955;0.6139027;0.6138271;0.6138374;0.6138456;0.6137628;0.6137305;0.6136843;0.6135542;0.6135854;0.613695;0.6138182;0.6140779;0.6142125;0.6143544;0.6144075;0.614345;0.6143286;0.6142961;0.6142347;0.6141863;0.6140956;0.6139219;0.6137958;0.6136789;0.6135539;0.6134424;0.6133063;0.6132105;0.6131476;0.6130034;0.6128486;0.6126886;0.6125028;0.6122558;0.6120112;0.6117157;0.6112846;0.6109329;0.6105953;0.6102731;0.6099786;0.6096646;0.609331;0.609042;0.6087635;0.6085523;0.6083663;0.6081647;0.6079577;0.6077401;0.6075022;0.6072847;0.6070081;0.6066407;0.6063687;0.6061236;0.6058577;0.6056068;0.6053975;0.6051227;0.6049559;0.6049725;0.6048626;0.6047477;0.6046312;0.6044469;0.6042739;0.6041577;0.60399;0.6038288;0.6036149;0.6034008;0.6030947;0.6030178;0.6030156;0.6030418;0.6032557;0.6033487;0.6033305;0.6034631;0.6036887;0.6038709;0.6040888;0.6043558;0.6045546;0.6048938;0.6054081;0.6058434;0.6063015;0.6068004;0.6072584;0.6077919;0.6084326;0.6090275;0.6096833;0.6104583;0.6111485;0.6118322;0.6125842;0.6133209;0.6141073;0.6149815;0.6158571;0.6167482;0.6176267;0.6185271;0.6194465;0.6203504;0.6212831;0.622348;0.6232563;0.6240522;0.6248937;0.625681;0.6264674;0.6272799;0.6280795;0.6289417;0.6296415;0.6301638;0.6308115;0.6314794;0.6319783;0.6326599;0.6334311;0.6339817;0.6346392;0.6353074;0.6360331;0.6366585;0.6372575;0.6378875;0.6384782;0.6390861;0.6397555;0.6403666;0.6408613;0.64151;0.6422213;0.6429561;0.6437796;0.6445957;0.6454188;0.6462908;0.6471565;0.6481249;0.6491829;0.6502503;0.6514834;0.6525996;0.6537637;0.6547425;0.6555728;0.656352;0.6570675;0.6576022;0.6581424;0.6583741;0.6583036;0.6580448;0.6576186;0.6571267;0.6565174;0.6557719;0.6550997;0.6542916;0.6536366;0.6530683;0.6525148;0.6519375;0.6515442;0.6512744;0.6510397;0.6509039;0.6508501;0.6508644;0.6509485;0.6511456;0.6514027;0.6517336;0.6520876;0.6524945;0.6530206;0.6536;0.6542674;0.6552086;0.6559317;0.656459;0.6572589;0.6581418;0.6590061;0.6602243;0.6610923;0.6617358;0.6623212;0.662671;0.6631015;0.6636559;0.6638857;0.6640027;0.6639608;0.6634596;0.6631225;0.6628385;0.6624585;0.6618744;0.6615505;0.6613289;0.6611077;0.6611046;0.6610872;0.66101;0.660964;0.6609008;0.6610103;0.6611275;0.6614425;0.6618476;0.662541;0.66297;0.6634306;0.6636598;0.6636882;0.6638365;0.6638384;0.6640919;0.6645618;0.6647538;0.6649539;0.6650493;0.6648099;0.6650746;0.6656328;0.6659099;0.6663258;0.6666192;0.6666309;0.6668726;0.6673449;0.6675276;0.6674469;0.6677594;0.6682426;0.6685165;0.6689584;0.6692564;0.669226;0.6693924;0.6697699;0.6699728;0.6698868;0.6702778;0.6709952;0.671437;0.6719996;0.6725054;0.6727722;0.6731825;0.673874;0.6742835;0.6745474;0.6746807;0.6744619;0.6747286;0.6752097;0.6753773;0.6756465;0.6760338;0.6762451;0.6764113;0.676748;0.6771665;0.6772467;0.6777931;0.6789902;0.6797445;0.6803572;0.6810011;0.6816447;0.6821314;0.6826331;0.6828914;0.682874;0.6828898;0.6824539;0.682858;0.6838061;0.6842512;0.6850672;0.6855499;0.6850407;0.6859187;0.6878637;0.6889581;0.6904298;0.6913099;0.6915776;0.691582;0.6912675;0.6910779;0.6902304;0.6902594;0.690788;0.691439;0.6926591;0.6930338;0.6932388;0.6935151;0.6932196;0.6936954;0.6947401;0.6953599;0.6959891;0.6953536;0.6952133;0.6958483;0.6956939;0.6960941;0.6973199;0.6976181;0.6977124;0.6983415;0.6986375;0.6993957;0.6998175;0.6990408;0.6993697;0.6989219;0.6984933;0.7001858;0.7005678;0.7005028;0.7008395;0.7003164;0.7004861;0.7020515;0.7025931;0.702427;0.7026393;0.7018397;0.7022716;0.7043454;0.7053509;0.706999;0.7078422;0.7076839;0.706984;0.7054455;0.7041269;0.7015026;0.700952
1.5383456;1.4456495;1.313455;1.2626178;1.2496641;1.3993868;1.7046108;1.6425912;1.2997894;1.2734538;1.4702833;1.3333421;1.3010541;1.3258313;1.3457148;1.3692971;1.3531224;1.3130507;1.2853752;1.3203168;1.3251321;1.3073125;1.3310472;1.3324999;1.3381753;1.3513869;1.3353105;1.3274831;1.3263558;1.3287711;1.3508674;1.3596437;1.34108;1.305867;1.313164;1.3191724;1.3120165;1.3113794;1.3248969;1.328073;1.3159704;1.3274317;1.3254987;1.3190473;1.3211234;1.3096123;1.3037854;1.3084538;1.3175684;1.3104527;1.307861;1.3148642;1.3116345;1.3113507;1.3127674;1.3116416;1.3025768;1.3079078;1.319868;1.318928;1.3099581;1.3018064;1.3001733;1.3069584;1.3104059;1.3090949;1.3053781;1.3046029;1.300974;1.2961667;1.2940993;1.2970146;1.298885;1.2964139;1.2900215;1.2921673;1.2945335;1.290952;1.2842481;1.2867742;1.2896216;1.282976;1.2824922;1.2858031;1.2879049;1.2834711;1.2812572;1.2788616;1.275355;1.2746694;1.2750118;1.2754613;1.2752954;1.2736033;1.2723863;1.2724463;1.27337;1.2716384;1.2698039;1.2690766;1.2669861;1.2661183;1.2665954;1.2671003;1.2636546;1.2604984;1.2600336;1.2625793;1.2626749;1.2611281;1.2593447;1.2578274;1.2574571;1.2570077;1.2552158;1.2540704;1.2526696;1.251032;1.2500105;1.2501905;1.2491237;1.2463121;1.2464581;1.2458738;1.2445464;1.2435449;1.2421465;1.2417123;1.2417067;1.2397656;1.2369324;1.2362244;1.2381804;1.23628;1.2336923;1.2324213;1.2332604;1.2323674;1.2299321;1.2273724;1.2270026;1.2272993;1.2267194;1.2246846;1.2234298;1.222705;1.2213115;1.2179785;1.2155459;1.2150303;1.2157382;1.214829;1.2133915;1.2119871;1.2108297;1.2091179;1.2078137;1.2068573;1.2055471;1.2056834;1.2053279;1.2036289;1.2030206;1.2019109;1.2007354;1.2002653;1.1992347;1.1979823;1.1969678;1.196614;1.1952953;1.1942719;1.1943141;1.193511;1.1913564;1.1891996;1.1887411;1.1867787;1.1849974;1.1840329;1.1824925;1.1802928;1.1783643;1.1773713;1.1759377;1.1750892;1.1743821;1.1724776;1.1709101;1.1698819;1.1693032;1.1690283;1.1680392;1.1674118;1.1684067;1.1687708;1.1689671;1.169296;1.1696925;1.1698494;1.1693983;1.168196;1.1666571;1.1648275;1.1626039;1.1598824;1.1572702;1.1546881;1.1522491;1.1504704;1.1494049;1.1489153;1.1487402;1.1485213;1.1482133;1.1475303;1.1460334;1.1445957;1.1427956;1.1404227;1.1381557;1.1368934;1.1363437;1.1356312;1.1343281;1.1328344;1.1310679;1.1282183;1.1254293;1.1233249;1.1222014;1.1220225;1.1219292;1.121549;1.1209176;1.1201833;1.1194896;1.1189322;1.1185522;1.1181458;1.1179351;1.11808;1.117505;1.1168445;1.1163006;1.1154946;1.1147195;1.1139849;1.1132005;1.112157;1.1111054;1.1100962;1.1090143;1.1074384;1.1059728;1.104802;1.1031734;1.1018285;1.1004887;1.0987619;1.0973008;1.0960274;1.0946492;1.09276;1.0911378;1.0897895;1.0885519;1.0872769;1.0861033;1.0847881;1.0830594;1.0818615;1.0808465;1.0797107;1.0783961;1.0773408;1.0763084;1.0750251;1.0738701;1.0727206;1.0716424;1.070794;1.0695709;1.0683916;1.067477;1.0662688;1.0649414;1.0635927;1.0623281;1.0613699;1.0602633;1.0589608;1.0579042;1.0565424;1.0552533;1.0542848;1.0528331;1.0515283;1.0503657;1.0490351;1.0480727;1.0470755;1.0457946;1.0443753;1.0431238;1.0419084;1.0405586;1.0394047;1.0383009;1.0371459;1.0358882;1.0343444;1.0328614;1.0316479;1.0304751;1.0290222;1.0274584;1.0261163;1.02486;1.0236905;1.0224844;1.0209956;1.0196751;1.0184669;1.0171779;1.0155257;1.0139648;1.0125662;1.0111715;1.0096654;1.008266;1.0069947;1.0055118;1.0040342;1.0025325;1.0009774;0.9996665;0.9981243;0.9963596;0.9947652;0.993428;0.9918722;0.9899849;0.9884934;0.986964;0.9853174;0.9836341;0.9823011;0.9805543;0.9785293;0.9771774;0.9754606;0.973603;0.9718999;0.970274;0.9683597;0.9664423;0.9649383;0.9631886;0.9612951;0.9594281;0.9577453;0.9559485;0.9541416;0.9524216;0.9505777;0.9488847;0.9471347;0.9450336;0.943471;0.941923;0.9400946;0.9381276;0.9365845;0.9350531;0.9331478;0.9312712;0.929837;0.9284549;0.9264523;0.9245624;0.9229503;0.9215277;0.9199764;0.9180547;0.9162778;0.9149501;0.9130743;0.911254;0.9096984;0.9083215;0.9066161;0.9046165;0.9026295;0.9012189;0.8996791;0.8980423;0.8964978;0.8951548;0.8936834;0.8920234;0.8903058;0.8888141;0.8872829;0.8855883;0.8838561;0.8825406;0.8813034;0.8797821;0.8780909;0.8764274;0.874975;0.8737901;0.8723304;0.8708484;0.8695326;0.8684028;0.866703;0.8649106;0.8634803;0.8622619;0.8607407;0.8589309;0.8571353;0.8557954;0.8545367;0.8531162;0.8514906;0.8500117;0.8485844;0.847092;0.8455354;0.8439194;0.8422701;0.8406323;0.8390751;0.8376229;0.836225;0.8347922;0.8333369;0.8317958;0.8301719;0.8285782;0.8272455;0.8259969;0.8245722;0.8227823;0.8211746;0.8198689;0.8186992;0.8171746;0.8155887;0.8141327;0.8128216;0.8116149;0.8102261;0.808623;0.8073267;0.8060501;0.8047678;0.803448;0.8017784;0.8002651;0.7989746;0.7976767;0.7960649;0.7943751;0.792851;0.7916369;0.790225;0.7886567;0.7871099;0.7858381;0.7844207;0.7829795;0.7816595;0.7800195;0.7785277;0.7771814;0.7757348;0.7743496;0.7728369;0.7712147;0.7697376;0.7685048;0.7672486;0.7657899;0.7642642;0.762736;0.7613005;0.7599829;0.7586098;0.7572393;0.7559435;0.7547488;0.7533305;0.7519991;0.7508;0.7495223;0.7480775;0.7467667;0.7456414;0.7443269;0.7429574;0.7416258;0.7403904;0.7392408;0.7379023;0.7364483;0.7350721;0.7338772;0.7326832;0.7314422;0.7301648;0.728755;0.7274716;0.7262616;0.7248189;0.7235044;0.7221247;0.7206584;0.7193997;0.71811;0.7168257;0.7155808;0.7142712;0.7130153;0.7116387;0.7100878;0.708997;0.7076601;0.7061525;0.7048344;0.7037157;0.7024891;0.7011447;0.6998524;0.6984935;0.6971834;0.6959504;0.694711;0.6933424;0.6919287;0.6906344;0.6896598;0.6885848;0.6873556;0.6860409;0.6847795;0.6837288;0.6826673;0.681464;0.6804373;0.6793044;0.678128;0.6770171;0.6758498;0.6747438;0.6737304;0.6727567;0.6716199;0.6704723;0.6694218;0.6684628;0.667203;0.6660539;0.6650586;0.6640062;0.6629797;0.6618665;0.6606538;0.6594341;0.6583178;0.6572721;0.6562468;0.6552145;0.6542803;0.6531791;0.6519488;0.6510023;0.6501032;0.6492498;0.6483566;0.6472137;0.6461599;0.6452;0.6442304;0.6431043;0.6422582;0.6414323;0.6404938;0.6397942;0.6385497;0.6374178;0.6368428;0.63619;0.6354386;0.6345915;0.6337301;0.6330498;0.6321385;0.6313669;0.6309378;0.6302421;0.6297573;0.6292766;0.6285845;0.6278658;0.6273596;0.6268433;0.6261052;0.6252918;0.6243778;0.6237453;0.6233726;0.6221404;0.6212864;0.6205791;0.6196157;0.6185332;0.6178202;0.6171447;0.6162536;0.6155497;0.6145751;0.61347;0.6124638;0.6116347;0.6105403;0.6093478;0.6082637;0.607299;0.6065716;0.6057923;0.6047155;0.6033418;0.6021665;0.6010216;0.5998216;0.5987726;0.598269;0.5973037;0.5956811;0.5943578;0.5939844;0.5930222;0.5914508;0.5906516;0.5894956;0.5882895;0.587187;0.5824755;0.5814276;0.5803587;0.5793249;0.5783445;0.5774176;0.5763944;0.5753719;0.5743737;0.5733014;0.5722905;0.5713795;0.5704063;0.5693945;0.5683752;0.5673335;0.5663283;0.5652805;0.5643132;0.5634137;0.5624831;0.5615641;0.5606804;0.5597371;0.5587679;0.5577984;0.5567468;0.5557972;0.5549307;0.5540145;0.553075;0.5522455;0.5513318;0.550324;0.5493819;0.548444;0.5475319;0.5466736;0.5457444;0.5448094;0.5438552;0.5427978;0.5418561;0.5409862;0.5400791;0.5391924;0.5383551;0.5374067;0.5364543;0.5354866;0.5345111;0.5335934;0.5327216;0.5318509;0.5310207;0.530171;0.5293172;0.5284621;0.5276326;0.526778;0.5258929;0.5250501;0.5242139;0.5233688;0.5225148;0.5216252;0.5207511;0.5199266;0.5192209;0.5184989;0.5177113;0.5168657;0.5161207;0.5153577;0.5146509;0.514066;0.5133827;0.5126979;0.5120018;0.5112702;0.5106243;0.5099192;0.5091736;0.5084838;0.5078088;0.5071703;0.5065527;0.5059562;0.5054174;0.5048298;0.5042246;0.5036486;0.5030507;0.5023912;0.501855;0.5013515;0.5008328;0.5003381;0.4997696;0.4991847;0.498568;0.4979852;0.4975071;0.4969992;0.4965371;0.4960933;0.4957062;0.4952013;0.494687;0.4942039;0.4936728;0.4931843;0.4927495;0.4923111;0.4918716;0.4914217;0.4910048;0.490589;0.4901871;0.4898604;0.489512;0.489186;0.4889208;0.4886996;0.4884896;0.4883314;0.4882029;0.4881203;0.4880965;0.4881474;0.4883077;0.4885278;0.4887721;0.4891079;0.4895338;0.4900352;0.4906729;0.4913401;0.4921123;0.4928599;0.4936293;0.4944165;0.4952222;0.4960471;0.4969114;0.4977652;0.4985903;0.4993621;0.5000501;0.5006859;0.5012528;0.501762;0.5021951;0.5025495;0.5028265;0.5030077;0.5031397;0.5031969;0.5032179;0.5031736;0.503104;0.5029935;0.502847;0.5026745;0.5024976;0.5022951;0.502039;0.5017474;0.5014538;0.5011131;0.500757;0.5004227;0.5000739;0.4997426;0.4994276;0.4991259;0.498845;0.498555;0.4982472;0.4979827;0.4977533;0.4974997;0.4972231;0.4969731;0.4967268;0.4964394;0.4961593;0.4958908;0.4955921;0.495256;0.4949065;0.4945535;0.4941823;0.4937837;0.4933563;0.4929113;0.4924697;0.4919866;0.4915186;0.4910818;0.4906099;0.4901166;0.4896043;0.4890733;0.4885387;0.4879704;0.4874096;0.4868313;0.4862528;0.4856218;0.4849457;0.4842994;0.4836392;0.4829603;0.4823219;0.481617;0.4808314;0.480072;0.4792961;0.4785214;0.4777348;0.4769816;0.4761927;0.475404;0.4746568;0.4739299;0.4731903;0.4724721;0.4717546;0.4710003;0.4703167;0.46967;0.4690462;0.4684777;0.4678862;0.4673027;0.4667315;0.4661759;0.4655975;0.4649962;0.4644376;0.4638821;0.4633343;0.4628372;0.4623318;0.4618157;0.4612744;0.4607717;0.4602762;0.4598015;0.4593575;0.4589004;0.4584406;0.4580033;0.4575842;0.4571509;0.456707;0.4562996;0.4558823;0.4555032;0.4551777;0.4548537;0.4545367;0.4542496;0.453949;0.4536538;0.4533735;0.4530951;0.4528297;0.452586;0.4523381;0.4520714;0.4518572;0.4516994;0.4514885;0.4512522;0.4510747;0.4508972;0.4507292;0.4506275;0.4505019;0.4503074;0.4501919;0.4501398;0.4500802;0.4500469;0.4500283;0.4500302;0.4500319;0.450064;0.4501329;0.4502035;0.45027;0.4503808;0.4505147;0.4506809;0.4508815;0.4510981;0.4513401;0.4516033;0.4518829;0.4521929;0.4525261;0.4528869;0.4532546;0.4536814;0.4541576;0.4546565;0.4551839;0.4557569;0.4563905;0.4570608;0.4577687;0.4585362;0.4593389;0.4601734;0.4610345;0.4619428;0.4628838;0.4638469;0.4648353;0.4658411;0.4669295;0.4680624;0.4692287;0.4704731;0.4717392;0.4730303;0.4743413;0.4757009;0.4770764;0.4784601;0.4798744;0.4813041;0.4827554;0.4842413;0.4857093;0.4871795;0.4886616;0.4901567;0.4916478;0.4931496;0.494681;0.4961993;0.4977207;0.4992178;0.5007091;0.5022036;0.5036877;0.5051651;0.5066268;0.5081243;0.5096286;0.5111298;0.5126518;0.5141944;0.5157043;0.5172778;0.5188935;0.5205522;0.5223281;0.5241463;0.5260438;0.5280759;0.5302635;0.5325449;0.5350185;0.5376279;0.5404879;0.5435028;0.5467691;0.5502363;0.5540622;0.5581559;0.562575;0.5673148;0.5724691;0.5779924;0.5838761;0.5901703;0.5969563;0.6042567;0.6118725;0.6199735;0.6284957;0.637491;0.6467237;0.656367;0.6664541;0.6767282;0.687267;0.6979876;0.7088255;0.7197092;0.7307384;0.7415174;0.7523721;0.7629756;0.7733752;0.7834845;0.7934577;0.8029932;0.8120545;0.8207633;0.8290753;0.8370147;0.8444535;0.8515199;0.8581188;0.8643563;0.8701305;0.8754596;0.8802193;0.8847854;0.8889443;0.8927489;0.8962306;0.89946;0.9023344;0.9048827;0.9072517;0.9094049;0.9112673;0.9129436;0.9145133;0.9158738;0.9170474;0.918031;0.9188929;0.9195613;0.9201851;0.9206988;0.9211091;0.921413;0.9216436;0.9217829;0.9218051;0.9217412;0.9215707;0.9212133;0.9209172;0.9206148;0.9202124;0.9197176;0.9192933;0.9188321;0.9183515;0.9179724;0.9174533;0.9168092;0.916177;0.9154756;0.9147995;0.9141065;0.9132807;0.9124411;0.9115252;0.9105406;0.9095413;0.9084511;0.9072775;0.9060178;0.9046674;0.9031488;0.9014725;0.8997297;0.89788;0.895903;0.8938532;0.8916835;0.8893296;0.8869718;0.8845614;0.8820828;0.8795297;0.8769468;0.8743001;0.8716469;0.8689867;0.8662348;0.8634117;0.860584;0.8576937;0.8548058;0.8519066;0.8490384;0.8461677;0.843263;0.8403778;0.8374515;0.8344735;0.8315107;0.8285297;0.8255745;0.8226218;0.8196622;0.8167444;0.8138016;0.8108515;0.8079097;0.8049159;0.8019578;0.799018;0.796038;0.7931173;0.7902121;0.7873341;0.7844943;0.7815958;0.7787093;0.7758161;0.7729076;0.7700804;0.7672607;0.7644748;0.7617036;0.7589049;0.756106;0.7533401;0.7505388;0.7478171;0.7451488;0.7424917;0.7398819;0.7372492;0.7346179;0.7320374;0.7294834;0.7269;0.7243159;0.7217771;0.7192041;0.716724;0.7143305;0.7119496;0.7096117;0.7072695;0.7049649;0.7026502;0.7003312;0.6980136;0.6956778;0.6933973;0.6911477;0.6888972;0.6866533;0.6844651;0.682296;0.6801524;0.6780763;0.676004;0.6739203;0.6718667;0.6698212;0.66783;0.6658627;0.6639569;0.6621147;0.6603057;0.6585589;0.6568101;0.6550463;0.6533443;0.6516734;0.649982;0.6483017;0.6466613;0.6450064;0.6433257;0.6416992;0.6400835;0.6384875;0.6369627;0.6354402;0.6339218;0.6324228;0.6308953;0.6294148;0.6279895;0.6265705;0.6251683;0.6237318;0.622306;0.6208868;0.6194509;0.6180703;0.6167286;0.6154207;0.61414;0.6128429;0.6115677;0.6103142;0.6090454;0.6078091;0.6065615;0.6052793;0.6040298;0.6028044;0.6016332;0.600529;0.5994108;0.59831;0.5972401;0.5961513;0.59508;0.5940375;0.593011;0.592008;0.5910426;0.5901073;0.5891653;0.5882221;0.5872833;0.5863398;0.585427;0.5845358;0.5836439;0.5827767;0.5819288;0.5810872;0.5802646;0.5794431;0.5786213;0.5778319;0.5770637;0.576291;0.5755332;0.5747771;0.5740135;0.5732695;0.5725396;0.5718353;0.5711453;0.570464;0.569815;0.569158;0.5684743;0.5678729;0.5673097;0.5667516;0.5662538;0.5657262;0.5651823;0.5646633;0.5641398;0.5636777;0.5632444;0.5628334;0.5624669;0.5621171;0.5617827;0.5614829;0.5612098;0.5609922;0.5607847;0.560635;0.5605195;0.5604433;0.5603886;0.5603467;0.5603817;0.5604212;0.5604944;0.5606689;0.5608779;0.5611175;0.5614027;0.5616984;0.5620145;0.5624015;0.5628208;0.5632418;0.563701;0.5641825;0.5647063;0.5652958;0.5659285;0.5666241;0.5673835;0.5682014;0.5690795;0.5699887;0.5709248;0.5719309;0.5729084;0.5739218;0.574891;0.5757828;0.5767349;0.5776887;0.5786673;0.5797157;0.5807347;0.5817291;0.5827501;0.5837627;0.5848123;0.5859107;0.5869915;0.5880521;0.5891715;0.5903133;0.591477;0.5927178;0.5939248;0.5951299;0.5963203;0.5974761;0.5986791;0.5999228;0.6011134;0.602293;0.6034986;0.6046811;0.6058607;0.6070887;0.6082705;0.609395;0.6105376;0.6116953;0.6128253;0.613971;0.6150202;0.6160515;0.6169688;0.6177847;0.6185423;0.6192201;0.6198344;0.6203976;0.6208279;0.6211232;0.6214476;0.6216429;0.6219682;0.6223415;0.6227391;0.6231661;0.6236376;0.6241254;0.6247354;0.6254076;0.6262011;0.6270654;0.6280629;0.6290655;0.6301808;0.6313242;0.6325092;0.6337267;0.6349933;0.6362829;0.6376385;0.6389564;0.6403067;0.6416059;0.6428643;0.6440971;0.6453395;0.6464705;0.6475121;0.6485401;0.6494833;0.6504176;0.6513672;0.6522186;0.6529784;0.6537297;0.6544346;0.6551048;0.6557338;0.6563677;0.6569458;0.657561;0.6582252;0.6587985;0.6593384;0.6598593;0.6603183;0.6607926;0.6612713;0.6617088;0.6621646;0.6626285;0.6630345;0.6634508;0.6638548;0.6642753;0.6647172;0.6650699;0.6653895;0.6656309;0.665855;0.6660696;0.6662503;0.6663647;0.6664894;0.6666517;0.666709;0.6666653;0.6781965;0.6782545;0.6782485;0.6782341;0.6781836;0.6781163;0.6779988;0.6778895;0.6776864;0.6774232;0.6770567;0.6767825;0.6764637;0.6761857;0.6759285;0.675725;0.6755136;0.675357;0.6752568;0.675195;0.6751982;0.6752394;0.6753144;0.6754286;0.6756126;0.6757631;0.6760883;0.6765308;0.677101;0.6776749;0.6782477;0.6788228;0.6792546;0.6800105;0.6809062;0.6818463;0.6829531;0.6841321;0.6852912;0.6866013;0.6881663;0.6898704;0.6917408;0.6937882;0.6960017;0.6983137;0.7009012;0.7037154;0.7066505;0.7099643;0.7135456;0.7172381;0.721278;0.7256431;0.7302833;0.7352308;0.7404959;0.7461556;0.7522346;0.7585078;0.7651532;0.772345;0.7798563;0.7878589;0.7961809;0.8049486;0.8142209;0.824042;0.8341191;0.8447709;0.8561573;0.8677881;0.8798636;0.8921829;0.904435;0.9169542;0.9297137;0.9422805;0.9549553;0.9678094;0.9802162;0.9925226;1.0045663;1.0162348;1.0276376;1.0383986;1.0487593;1.0586494;1.0682081;1.0770656;1.0856537;1.0937356;1.100938;1.1075488;1.1137413;1.1194667;1.124849;1.1299131;1.1345094;1.1385249;1.1420301;1.1453652;1.1485908;1.1513598;1.1538646;1.1563135;1.1583618;1.1602587;1.1619515;1.1633722;1.1644167;1.1654537;1.1662658;1.1670835;1.1682078;1.1690005;1.1694678;1.1699692;1.1702658;1.1705974;1.1708996;1.1713613;1.1715807;1.1716788;1.1715776;1.1714706;1.171609;1.1718202;1.171978;1.1719501;1.1718721;1.1717514;1.1714593;1.1711826;1.1709077;1.170626;1.1703867;1.1699855;1.169422;1.1686767;1.1678172;1.1670854;1.166317;1.1656812;1.1649729;1.1641892;1.1632975;1.1623603;1.1614724;1.1604439;1.1595739;1.1586367;1.1575693;1.1565529;1.155429;1.1544106;1.1534728;1.152516;1.1515081;1.1505849;1.1496918;1.1489676;1.1480292;1.1470098;1.146093;1.145182;1.1440731;1.1430662;1.1418309;1.1401538;1.1387552;1.1374134;1.1361045;1.1347975;1.1335964;1.1321903;1.1307907;1.1295611;1.1284251;1.1271938;1.1261451;1.1248689;1.1234237;1.1220022;1.1205415;1.1190243;1.1174234;1.1157718;1.1142564;1.1127864;1.1112593;1.1098007;1.1082702;1.1066403;1.1050469;1.1034094;1.1019012;1.100486;1.098986;1.0975099;1.0961759;1.0945601;1.0926062;1.0910934;1.0896885;1.0882487;1.0870976;1.085716;1.0840676;1.0826051;1.0813293;1.0798651;1.0784277;1.0768175;1.0752393;1.0735139;1.071865;1.0701509;1.0686855;1.067325;1.0659171;1.0647531;1.0634236;1.0619034;1.0604762;1.0589961;1.0576503;1.0563775;1.0552266;1.05393;1.052691;1.0513676;1.0498739;1.0484954;1.0472082;1.0458541;1.0443791;1.0430652;1.0418298;1.04059;1.0393949;1.038268;1.0372401;1.0362545;1.0352765;1.0344884;1.0335182;1.032477;1.0313828;1.0302135;1.0290537;1.0277869;1.0266;1.0255226;1.0243427;1.0231305;1.0219449;1.0206182;1.0192448;1.017693;1.0159781;1.0142928;1.0124413;1.0106715;1.0089074;1.007187;1.0054616;1.0037752;1.0021791;1.0005455;0.9989064;0.9972648;0.9956139;0.9939111;0.9923193;0.9907591;0.9892288;0.9877209;0.9863168;0.9851413;0.9836748;0.9820582;0.9805889;0.9789229;0.9774115;0.9760623;0.9748619;0.9736245;0.9724277;0.9711766;0.9700148;0.9686903;0.9672251;0.9658089;0.9642995;0.9629056;0.961516;0.9602031;0.9590101;0.9577926;0.9566106;0.9554815;0.9542191;0.9528712;0.9516183;0.9502791;0.9491048;0.9480751;0.9469895;0.9459674;0.944899;0.9437765;0.9427292;0.941701;0.9406831;0.9397624;0.9387574;0.9376478;0.9366747;0.9356117;0.9344625;0.9334651;0.9325145;0.9315684;0.9306537;0.9298042;0.9290151;0.9282049;0.9274466;0.9267132;0.9258699;0.9252112;0.9247442;0.9242173;0.9238086;0.9233491;0.922644;0.922029;0.9215593;0.9211224;0.9207187;0.9205286;0.9201854;0.9196975;0.9193663;0.9191245;0.918835;0.9185736;0.9183353;0.9181505;0.917844;0.917501;0.9171633;0.9166904;0.9163123;0.9159945;0.9157586;0.9155408;0.9153976;0.91518;0.9150186;0.9147441;0.9143478;0.9140417;0.913717;0.9134078;0.9131923;0.9128482;0.9124084;0.91203;0.9115623;0.9111981;0.9109228;0.9107143;0.9103311;0.9099321;0.9095325;0.9090638;0.9084947;0.9079348;0.9073082;0.9064463;0.9057966;0.9053414;0.9046752;0.9039595;0.9032436;0.9023731;0.901579;0.9007906;0.9000881;0.8994313;0.8987885;0.8983104;0.8977204;0.8971519;0.8967032;0.8961425;0.8955618;0.8950273;0.8944126;0.8939144;0.8935741;0.8930643;0.892458;0.892022;0.8915856;0.8911601;0.8908479;0.8905147;0.890139;0.8898214;0.8896144;0.8893542;0.8890749;0.8887763;0.888361;0.8880452;0.8879396;0.8878059;0.8877451;0.887869;0.8879396;0.8879663;0.8880572;0.8882069;0.8884221;0.8886018;0.8889359;0.889412;0.8899456;0.8905293;0.8912566;0.8921811;0.8930607;0.8939764;0.8949674;0.8960416;0.8970769;0.8981544;0.8992791;0.9004311;0.9014547;0.9027686;0.9041649;0.9054692;0.9067324;0.9082812;0.9098935;0.9115778;0.9136512;0.9153404;0.9167156;0.9184095;0.9202024;0.9218987;0.9236878;0.9254995;0.9271281;0.9289893;0.9311965;0.9331537;0.9351876;0.9369783;0.9384711;0.9400537;0.9416364;0.9430234;0.9442636;0.9455565;0.946573;0.9478422;0.9491003;0.950452;0.9520009;0.9532226;0.9545964;0.9560302;0.9575381;0.959104;0.9605462;0.9620259;0.9634852;0.9648663;0.9661353;0.9674482;0.9686457;0.9694657;0.9706708;0.9719057;0.9734707;0.9755995;0.9772526;0.9788652;0.9805357;0.9818639;0.9834238;0.985325;0.9870629;0.9887083;0.9904091;0.9924135;0.9939532;0.9953305;0.9964367;0.9968703;0.9975205;0.9981943;0.9987377;0.9994399;1.0000904;1.0001804;0.9998186;0.9998354;0.9994963;0.999599;1.0001861;1.0004489;1.0005453;1.0009145;1.0014104;1.0018464;1.0023901;1.0029589;1.0034455;1.004106;1.0049212;1.005757;1.0066962;1.0075936;1.0084291;1.0095342;1.0106748;1.0120456;1.0136639;1.0154781;1.0177566;1.0196372;1.0216794;1.0234188;1.0246336;1.0260432;1.0277201;1.0288794;1.0296408;1.0305024;1.030768;1.0315516;1.0330876;1.0339739;1.03456;1.0353193;1.0358324;1.0362768;1.0368315;1.0374267;1.0375847;1.0381465;1.0394889;1.0402803;1.0406737;1.0413884;1.0416572;1.0424353;1.0439885;1.0454763;1.0468057;1.0483781;1.0492762;1.0495607;1.0506039;1.0517336;1.0525786;1.0537688;1.0545933;1.0547667;1.0554497;1.0563715;1.0573707;1.0585284;1.0594469;1.0604419;1.0614905;1.0622058;1.0633352;1.0649886;1.0661689;1.0670656;1.0684398;1.0698621;1.0713832;1.0738299;1.0745649;1.073844;1.0748758;1.0757824;1.0769895;1.0798826;1.0812993;1.0814437;1.0823913;1.0832845;1.0848246;1.0872604;1.0883185;1.0893643;1.0898249;1.0883096;1.0891476;1.0910466;1.0927418;1.0960015;1.0974243;1.0974578;1.098745;1.0998738;1.1011834;1.1037441;1.1050041;1.1050954;1.1059844;1.1064283;1.1080201;1.1106561;1.1126299;1.1154714;1.116695;1.1162807;1.1175566;1.1192155;1.1202739;1.121966;1.1230073;1.1223198;1.1234887;1.1260667;1.1280233;1.1312946;1.1316801;1.1298538;1.1297339;1.1285355;1.1282442;1.1288517;1.1307745;1.1336477;1.1349431;1.1369596;1.1398996;1.1416658;1.1438202;1.1483183;1.150772;1.1515396;1.151613;1.1512036;1.1521319;1.152011;1.1524709;1.1549653;1.1543034;1.1525434;1.1497362;1.1515528;1.1549301;1.1561829;1.1588801;1.1613861;1.1604563;1.158281;1.1578252;1.159862;1.1636063;1.168148;1.1716349;1.1708949;1.1660842;1.1657223;1.1642792;1.1636511;1.1651924;1.1668948;1.1713864;1.1731083;1.1744977;1.1743405;1.1683108;1.1656129;1.1632416;1.1637208;1.1681548;1.1713989;1.1782801;1.1807142;1.1799164;1.1797414;1.1770158;1.175752;1.1753461;1.1731064
1.5131801;1.6049607;1.5866439;1.4926728;1.510057;1.5755041;1.6733836;1.7898208;1.6008563;1.4767721;1.4599316;1.4636061;1.4761888;1.4517802;1.4086837;1.4838049;1.4702406;1.4113798;1.3970562;1.3882387;1.3968788;1.4083118;1.3976016;1.4138569;1.4315344;1.4322009;1.4198545;1.4134563;1.4089439;1.4063034;1.4331281;1.4266727;1.4114075;1.4283347;1.4164945;1.4123842;1.4140456;1.3909029;1.4170012;1.4350035;1.4138415;1.4139189;1.4089276;1.4047676;1.4090135;1.4062454;1.4000537;1.4006256;1.416728;1.4114355;1.4018111;1.3994579;1.4014008;1.399694;1.3998071;1.4067858;1.4170718;1.4190195;1.4157038;1.4150581;1.4064907;1.4039209;1.4072835;1.4025937;1.4036717;1.4060941;1.4054195;1.4040315;1.4055864;1.4046558;1.3961442;1.3917094;1.3904893;1.3893844;1.3847648;1.3845223;1.3814679;1.3740962;1.3748956;1.3734442;1.3723176;1.3744949;1.3678876;1.3628986;1.3604015;1.3546453;1.3476118;1.3460379;1.3505105;1.3513387;1.3452306;1.3402284;1.3421831;1.3353934;1.3304025;1.329734;1.3298647;1.3280742;1.325492;1.3232522;1.3215117;1.319422;1.3176252;1.3163625;1.3123456;1.3089435;1.3075438;1.3076746;1.3062583;1.3046113;1.3032532;1.2998868;1.2977046;1.2964556;1.2950999;1.2947806;1.2919388;1.2880275;1.2881515;1.2867252;1.2848917;1.2837545;1.2820044;1.2799166;1.2782159;1.2775589;1.2774119;1.2757124;1.2729455;1.2719624;1.2700176;1.2684165;1.2680808;1.2672702;1.264745;1.2622718;1.2621981;1.2609141;1.2580857;1.2552639;1.2557297;1.256004;1.2547196;1.2520262;1.2507105;1.250688;1.2500976;1.2467371;1.244803;1.2444161;1.2445177;1.2430197;1.2419877;1.2414442;1.2408262;1.2397097;1.2384228;1.2376326;1.2380463;1.2377659;1.2377074;1.2380313;1.23632;1.2357912;1.2361017;1.2357603;1.2345107;1.2340106;1.2342082;1.2333215;1.2323347;1.2315302;1.2309686;1.2307287;1.2286419;1.2257645;1.2243956;1.2231628;1.221995;1.2208332;1.2194973;1.2175078;1.215086;1.2127887;1.2116216;1.2107482;1.2095493;1.2077291;1.2064326;1.2057161;1.2054217;1.2053751;1.2052357;1.2052599;1.2058012;1.2062769;1.2075838;1.2094108;1.2101316;1.2109437;1.211442;1.2108803;1.2083954;1.2056116;1.2023097;1.1975909;1.1936113;1.1901431;1.1870426;1.1847425;1.1827644;1.1812575;1.1802119;1.1781446;1.1760315;1.1742482;1.1725527;1.1706604;1.1684566;1.1659662;1.1631922;1.1615312;1.1605859;1.1592587;1.1579458;1.1566561;1.1551772;1.1530504;1.1510406;1.1492431;1.147741;1.1474123;1.1468621;1.145903;1.1452011;1.1442505;1.1432257;1.1423329;1.1416609;1.1411401;1.1406728;1.1401292;1.1392759;1.1385231;1.1378549;1.1367694;1.1357518;1.1348275;1.1338998;1.1328561;1.131479;1.1300032;1.1288309;1.1272775;1.1258643;1.1247178;1.1230559;1.1212248;1.1195372;1.1181247;1.1162975;1.1144555;1.1127959;1.1112694;1.1095244;1.1077709;1.1061527;1.1043693;1.102728;1.1010724;1.0991696;1.0980583;1.096742;1.0948782;1.0933042;1.0917108;1.0900024;1.0882624;1.0871286;1.0857817;1.0841955;1.082924;1.0814807;1.0799646;1.0784816;1.076948;1.0753306;1.0737242;1.0722364;1.0706754;1.0692599;1.0679851;1.0665643;1.0648652;1.0633061;1.0620819;1.0602906;1.0588109;1.0574707;1.0556124;1.0541313;1.0527335;1.051156;1.049378;1.047768;1.0462797;1.0447392;1.0430679;1.0413043;1.0396445;1.0383569;1.0367243;1.0349606;1.033322;1.0318567;1.0301028;1.0281968;1.0264835;1.0248981;1.0232146;1.0213954;1.0196452;1.017908;1.0162404;1.0146112;1.0125875;1.0107561;1.0091457;1.0074426;1.0053078;1.0034128;1.0018983;0.9999296;0.99795;0.9960358;0.9941495;0.9922504;0.990202;0.988069;0.9860685;0.9841277;0.9819874;0.9796531;0.9776474;0.975651;0.9736214;0.9715755;0.9694678;0.9672419;0.9649653;0.9628162;0.9606311;0.9585565;0.9565716;0.9540816;0.9517085;0.9496133;0.947673;0.9452547;0.9429721;0.9409813;0.9388352;0.9366007;0.9344752;0.9325277;0.9303625;0.9281299;0.9259739;0.9239908;0.9220452;0.9198776;0.9175701;0.9156036;0.9136199;0.9115258;0.9093607;0.907388;0.9054693;0.9035737;0.9017192;0.8998018;0.8977858;0.8957506;0.8939191;0.8918805;0.8899155;0.8882459;0.8863404;0.8844454;0.88254;0.8805146;0.8787347;0.8767787;0.8746302;0.8728945;0.8711731;0.8694927;0.8678538;0.865846;0.8640062;0.8622938;0.8604299;0.8588606;0.8571022;0.8551148;0.8534942;0.851841;0.8501748;0.8485185;0.8466339;0.8447833;0.843079;0.8415036;0.8398193;0.8381034;0.8364144;0.8347601;0.8330029;0.8312958;0.829725;0.8281318;0.8263462;0.8245021;0.8228081;0.8210925;0.8194689;0.8178883;0.8161662;0.8145396;0.8128844;0.8111528;0.8095585;0.807916;0.8061827;0.8044021;0.8027272;0.8012682;0.7998784;0.7982748;0.7965531;0.7948303;0.7931587;0.7915125;0.7898565;0.7883227;0.7869254;0.7852875;0.7835063;0.7817978;0.7803542;0.7788779;0.7772609;0.7755516;0.7739232;0.7725428;0.7710839;0.769393;0.7678194;0.7661963;0.7646173;0.7631585;0.761641;0.759901;0.7581908;0.7568802;0.7553833;0.7536049;0.7517837;0.7504113;0.7490599;0.7476164;0.7460504;0.7443842;0.7428197;0.7413772;0.7399629;0.7383758;0.7367344;0.7351505;0.7337055;0.732305;0.7307609;0.7290905;0.7275298;0.7262401;0.7249581;0.7234838;0.7219155;0.7201656;0.7185585;0.7173079;0.7159419;0.7144213;0.7128294;0.711318;0.7099127;0.7086375;0.7073351;0.7057362;0.7039266;0.7023985;0.7012546;0.6999757;0.6983951;0.6967351;0.6952321;0.6938826;0.6926257;0.6912575;0.6896317;0.6879286;0.6865042;0.6852905;0.6839731;0.6824872;0.6808791;0.6793031;0.6779475;0.6766499;0.6752688;0.6737679;0.6722531;0.670771;0.6694486;0.6682792;0.6669692;0.6654543;0.6638364;0.6622987;0.6611311;0.6597773;0.6582868;0.6569195;0.6555777;0.6543543;0.653116;0.6516675;0.6503589;0.6489837;0.6475743;0.6463639;0.64506;0.6437396;0.642477;0.6412852;0.6400142;0.6387628;0.6375332;0.6360892;0.6349567;0.6338067;0.6323994;0.6312218;0.62992;0.628701;0.6277141;0.6263601;0.6250473;0.6237681;0.6224399;0.6214423;0.620259;0.6189106;0.6176518;0.6162326;0.615091;0.6141804;0.6131339;0.6119629;0.6106316;0.60924;0.6079899;0.6069619;0.6059847;0.6049642;0.6039221;0.602776;0.6014879;0.6001557;0.5990105;0.5981331;0.5972435;0.596158;0.5949444;0.5938909;0.5929294;0.5919049;0.5906707;0.5897341;0.5888616;0.5878671;0.5869455;0.5856949;0.5846731;0.5841192;0.5832481;0.5822431;0.5813052;0.5805066;0.579635;0.5788944;0.5782676;0.5776035;0.57661;0.57593;0.5755105;0.5750474;0.574173;0.5736074;0.5729983;0.5719829;0.5708834;0.5701542;0.5695078;0.5685888;0.567428;0.5664889;0.5655569;0.5644232;0.5633161;0.5625146;0.5617095;0.5606699;0.5596914;0.5584151;0.5572508;0.5563726;0.5551897;0.5542891;0.5532745;0.5519835;0.5509971;0.5495239;0.5484419;0.5478551;0.5463485;0.545086;0.5439323;0.5427486;0.5416955;0.5408455;0.5398837;0.5386911;0.5375016;0.5371166;0.5360573;0.5342181;0.5329061;0.5319406;0.5308012;0.5295081;0.5306285;0.529562;0.5285957;0.5276144;0.5265728;0.5255156;0.52449;0.5234191;0.5223935;0.521424;0.5204273;0.5194116;0.5184223;0.5174573;0.5164807;0.5155074;0.5145166;0.5135313;0.5125299;0.5114446;0.5104511;0.509424;0.5083578;0.5073662;0.5064245;0.5054461;0.5044692;0.5035232;0.5025852;0.5016498;0.5007603;0.4998457;0.4988935;0.4979125;0.4969139;0.4959238;0.4949631;0.4939865;0.4930816;0.4922866;0.4913605;0.490376;0.4894628;0.4884606;0.487582;0.4868701;0.4860734;0.4851742;0.4842798;0.4832815;0.4823689;0.481583;0.4807741;0.4799413;0.4791085;0.4782928;0.477461;0.4766533;0.4758787;0.4750974;0.4743156;0.4735349;0.4727609;0.4719543;0.4710965;0.4702584;0.4694929;0.4687638;0.4680333;0.4673077;0.4665936;0.4658551;0.465147;0.4645017;0.4638093;0.4630836;0.4623823;0.4617255;0.4610618;0.4603955;0.4597157;0.4590409;0.4583697;0.4577255;0.4571593;0.4565687;0.4559125;0.4553075;0.4547472;0.4541374;0.4535051;0.4529161;0.4523201;0.4517006;0.4511478;0.4506303;0.4500953;0.4494901;0.4488726;0.448329;0.4477597;0.4472373;0.4467425;0.4461341;0.4455371;0.4449894;0.4444591;0.4439217;0.4434214;0.4429589;0.4424905;0.4420004;0.4415372;0.4410611;0.4405772;0.4401489;0.4397091;0.4392688;0.4388419;0.4384039;0.4380209;0.4376845;0.4373907;0.4371379;0.4369316;0.4367245;0.436578;0.4365034;0.4364518;0.4364732;0.4365593;0.436668;0.4368243;0.4370488;0.4373551;0.4377514;0.4382086;0.4387457;0.4394184;0.4400559;0.4407386;0.4414257;0.4421239;0.4428256;0.44355;0.4442745;0.4450044;0.4456815;0.4463027;0.4469148;0.447439;0.4479069;0.4483418;0.4486688;0.4489345;0.4491234;0.4492632;0.4493396;0.4493679;0.4493349;0.4492619;0.4491263;0.4489631;0.4487828;0.4485857;0.4483595;0.4480727;0.4477607;0.4474759;0.4471824;0.4468932;0.4465959;0.4462881;0.4459742;0.4456428;0.4453421;0.445022;0.4447666;0.4445648;0.4443525;0.4441691;0.4440062;0.4438014;0.4436037;0.4433936;0.443178;0.442983;0.442772;0.4425475;0.4423317;0.4420797;0.4418141;0.4415038;0.4411527;0.4408007;0.4404108;0.4400278;0.4396382;0.4392558;0.4388823;0.4384745;0.4380893;0.4376838;0.4372171;0.4367657;0.4362671;0.4357586;0.4352445;0.4347504;0.4341577;0.4335235;0.4328625;0.4321557;0.4313971;0.4305995;0.4297808;0.4288933;0.4279998;0.4270901;0.4261815;0.4252572;0.4243113;0.4233427;0.4223782;0.4214452;0.4204866;0.4195847;0.4187221;0.4178987;0.4171098;0.4163283;0.4155957;0.4148565;0.4140854;0.4133834;0.4127249;0.4120878;0.4115157;0.4109173;0.4103207;0.4097345;0.4091446;0.4085672;0.4079842;0.4074143;0.4068558;0.4062927;0.4057513;0.4052313;0.4047202;0.4042104;0.4037275;0.4032627;0.4028181;0.4024017;0.4019842;0.401582;0.4011874;0.4007796;0.4004107;0.4000969;0.3997498;0.3993967;0.3990599;0.3987302;0.3983631;0.3980881;0.3978832;0.3976361;0.3974101;0.3971854;0.3969373;0.3967263;0.396554;0.3963692;0.3961802;0.3960126;0.3958535;0.395709;0.3955884;0.3954659;0.395331;0.3952345;0.3951557;0.395094;0.3950579;0.3950524;0.3950379;0.3950215;0.3950387;0.3950713;0.3951183;0.3951873;0.39527;0.3953474;0.3954801;0.3956528;0.3958363;0.3960582;0.3962826;0.3965069;0.3967627;0.3970222;0.3973347;0.3976862;0.3980619;0.3984759;0.3989183;0.399371;0.3998738;0.4004138;0.4010051;0.4015886;0.4021831;0.4028367;0.4035086;0.4042278;0.4050001;0.4058099;0.4066551;0.4075206;0.4084215;0.4093668;0.4103369;0.4113449;0.412414;0.413497;0.414596;0.4157252;0.4168932;0.4180812;0.4192785;0.4205289;0.4218084;0.4230906;0.4244272;0.4257648;0.4270886;0.4284035;0.4297636;0.4311396;0.4325085;0.4339139;0.4353023;0.4366786;0.4380456;0.4394178;0.4407908;0.4421504;0.4435084;0.4448572;0.4462411;0.4476333;0.4490276;0.4504424;0.4518804;0.4533015;0.4547675;0.4562594;0.4578293;0.4595021;0.4612119;0.4629957;0.4648983;0.4669592;0.4691054;0.4714296;0.4738946;0.4765861;0.4794036;0.4824783;0.4857582;0.4893586;0.4931974;0.4973619;0.5018201;0.5066903;0.5119094;0.5175107;0.523515;0.5300135;0.5370309;0.544386;0.5522344;0.5604961;0.5692785;0.5783148;0.5877382;0.597671;0.6078721;0.6184075;0.6292221;0.6402466;0.6513996;0.6627663;0.6740214;0.6854984;0.6968157;0.7080874;0.7191185;0.7300815;0.7407723;0.7511727;0.7612004;0.770999;0.7803694;0.7892112;0.7976695;0.8056718;0.813265;0.8203016;0.8269244;0.8330573;0.8388168;0.8440606;0.8488949;0.8533117;0.8573148;0.8609958;0.8642837;0.8672452;0.8700088;0.8724474;0.8746002;0.8765543;0.8782317;0.8796631;0.8808739;0.8819696;0.8829123;0.8836612;0.8842356;0.8846551;0.8848673;0.8849874;0.8849609;0.8848441;0.8845801;0.8842581;0.8838467;0.8833605;0.8827821;0.8821538;0.8814123;0.8806825;0.8799136;0.8791269;0.8783461;0.8775126;0.8766536;0.8757359;0.8747439;0.8737347;0.8727012;0.8716121;0.870474;0.8692766;0.8680088;0.8666148;0.8651001;0.8634778;0.861698;0.8597989;0.8577775;0.855582;0.8532972;0.8508943;0.8483409;0.8456842;0.8429011;0.8399437;0.8369104;0.8337387;0.8305971;0.8274129;0.8241453;0.8208358;0.8175185;0.8141113;0.8106992;0.8072888;0.8038605;0.8003901;0.7969149;0.7934223;0.7899942;0.7865794;0.783132;0.7797066;0.7762935;0.7728524;0.7694232;0.7660252;0.762643;0.7592805;0.7558529;0.7524406;0.7490328;0.7456253;0.7422682;0.7389439;0.7356777;0.7324237;0.7291676;0.7259293;0.72271;0.7195678;0.7164012;0.7132336;0.7101688;0.707089;0.7039945;0.700931;0.6978568;0.6948105;0.6918014;0.6888229;0.6859148;0.683009;0.6801066;0.6772245;0.6743605;0.6715454;0.6687532;0.6659908;0.6632712;0.6606002;0.6579546;0.6553153;0.6527071;0.6501423;0.6475933;0.6450801;0.6426301;0.6401967;0.6377792;0.6353555;0.6329325;0.6305643;0.6282289;0.6258901;0.6235767;0.6213141;0.6190484;0.616808;0.6146307;0.6124652;0.6102809;0.6081638;0.6061111;0.6040739;0.6020735;0.6000795;0.5980847;0.5961452;0.5942236;0.5923533;0.5905259;0.5887548;0.5870365;0.5853535;0.5836943;0.5820723;0.580496;0.5789211;0.5773278;0.5757679;0.5741985;0.5726191;0.5710753;0.569554;0.5680556;0.5665445;0.5650478;0.5636042;0.5621616;0.5607209;0.5592955;0.5578763;0.5564836;0.5550836;0.5536709;0.5522892;0.5509096;0.5495269;0.548198;0.5469192;0.5456524;0.544383;0.5431046;0.5418519;0.5405818;0.5392985;0.5380981;0.5368999;0.5356916;0.5345327;0.5333627;0.5322167;0.5311329;0.5300495;0.5289713;0.5279121;0.5268766;0.5258526;0.5248417;0.5238611;0.5228893;0.5219553;0.5210705;0.5201753;0.5192751;0.5183969;0.517507;0.5166382;0.5157991;0.5149419;0.5141063;0.5132804;0.5124804;0.5117002;0.5109203;0.5101597;0.5094066;0.5086529;0.5079105;0.507181;0.5064684;0.5057675;0.5050567;0.5043584;0.5036755;0.5029672;0.5023256;0.5017376;0.5011379;0.5005501;0.5000068;0.4994921;0.4989662;0.498468;0.497974;0.4974589;0.4970007;0.4965826;0.4961739;0.495778;0.4954279;0.4951087;0.4948228;0.4945701;0.4943653;0.4941853;0.4940511;0.4939502;0.4938692;0.4938464;0.493873;0.4939412;0.4940458;0.4941902;0.4943797;0.49462;0.4949325;0.4952728;0.495654;0.4960751;0.4965256;0.4970288;0.4975794;0.49817;0.4987704;0.4994428;0.500198;0.5009952;0.5018476;0.5027629;0.5037399;0.5047888;0.5059333;0.5071656;0.5084794;0.5098224;0.5112488;0.5127021;0.5142162;0.5157094;0.5172112;0.5187509;0.5202993;0.5218579;0.5234452;0.5250629;0.5266801;0.5283276;0.529983;0.5317303;0.533556;0.5353745;0.5372787;0.5391583;0.5410092;0.5428761;0.5447744;0.5466623;0.5485579;0.5504206;0.5522866;0.5541092;0.5559101;0.5576476;0.5593101;0.5609987;0.5626668;0.5642895;0.5659102;0.5674926;0.5690285;0.5705064;0.5720009;0.5733495;0.5746167;0.5757318;0.576746;0.5775919;0.5783148;0.5787989;0.5791001;0.579213;0.5790696;0.5788435;0.5784445;0.5779791;0.5773156;0.5767868;0.5761794;0.5757571;0.5753996;0.5752183;0.5751384;0.5752591;0.5755616;0.5759869;0.576544;0.5773427;0.5782192;0.5792623;0.580422;0.5817603;0.5830758;0.5845006;0.5859299;0.5873706;0.5887838;0.5902756;0.5916678;0.593011;0.5942542;0.5954752;0.5965129;0.5973815;0.5981807;0.5988379;0.5994225;0.5999458;0.6003296;0.6005259;0.6007606;0.6009111;0.6010607;0.6012123;0.60133;0.60137;0.6014764;0.601585;0.601746;0.6019492;0.6021546;0.6024061;0.6026274;0.6028513;0.6030366;0.6032025;0.6034293;0.6036919;0.603964;0.6042437;0.6044941;0.6047289;0.605015;0.6052248;0.6053684;0.6054954;0.6055866;0.6056339;0.6056381;0.6056451;0.605606;0.6055701;0.6055613;0.6145355;0.6143325;0.6142235;0.6140685;0.6139474;0.6139174;0.6138077;0.6136912;0.6135063;0.6132792;0.6130299;0.6127166;0.6123105;0.6119439;0.6114966;0.6111519;0.6107842;0.6105334;0.6103475;0.6102518;0.6101844;0.610219;0.6102195;0.6101804;0.6102833;0.6104226;0.6106318;0.6109369;0.6113309;0.611662;0.612099;0.6125501;0.6129888;0.6135777;0.6141856;0.6149751;0.6159091;0.6169232;0.6180345;0.6192647;0.6205865;0.6221125;0.6238103;0.6256441;0.627723;0.6299906;0.6324554;0.6350849;0.6380184;0.641206;0.6445574;0.648198;0.6521481;0.656438;0.6609786;0.6659696;0.6713638;0.6771459;0.6834267;0.6899429;0.6967912;0.7041718;0.7120003;0.7204892;0.7294549;0.7390648;0.7492755;0.7601736;0.7715756;0.7837204;0.7966636;0.8102317;0.8245508;0.839348;0.8545482;0.8702764;0.8866228;0.9030488;0.9198869;0.9374579;0.9551719;0.97311;0.9913064;1.0092168;1.027135;1.0449045;1.0624077;1.079697;1.0971745;1.1140698;1.1303781;1.1459436;1.1607265;1.1747192;1.187651;1.1999505;1.2116464;1.2224774;1.2326657;1.2420073;1.25054;1.2582099;1.2652104;1.2714694;1.2774171;1.2832272;1.2882061;1.2926043;1.2965831;1.3002316;1.3033404;1.3063889;1.308889;1.311139;1.3130484;1.31431;1.3154016;1.3163742;1.3173236;1.3182722;1.319057;1.3199488;1.3204633;1.3206875;1.3207586;1.3206012;1.3203353;1.3202122;1.3197987;1.3194802;1.3193285;1.3188397;1.3181593;1.3173873;1.3165447;1.3153712;1.3138877;1.3124902;1.3109927;1.3093722;1.3079467;1.3064665;1.3048278;1.3030534;1.3012103;1.2992952;1.2973349;1.2952926;1.2931737;1.2911677;1.2889333;1.2866006;1.2844867;1.2823128;1.2800643;1.2778573;1.2758524;1.2735652;1.2710625;1.2686497;1.2662424;1.2636298;1.2609831;1.2586076;1.2561072;1.2535578;1.250922;1.2484348;1.245574;1.2422905;1.2393228;1.2364477;1.2332892;1.2302526;1.227502;1.2245096;1.2215195;1.2185636;1.215712;1.2127358;1.2096915;1.2066573;1.2035363;1.2004896;1.1976413;1.1945558;1.1914104;1.1881378;1.1849432;1.1815181;1.1783857;1.1755766;1.1724501;1.1692672;1.1660496;1.1624813;1.1593145;1.1563234;1.153354;1.1505657;1.1479224;1.1450368;1.1421643;1.1391096;1.1357262;1.1326877;1.1296936;1.1267086;1.1239363;1.1210687;1.1180443;1.1151671;1.1123612;1.1095889;1.1069287;1.1043599;1.1018033;1.099435;1.0968291;1.0940222;1.0914686;1.0888238;1.0864041;1.084233;1.0820937;1.0801389;1.0780841;1.0760347;1.0740206;1.0720483;1.0699815;1.0680951;1.0663875;1.0646154;1.0629508;1.0611366;1.0591456;1.0573552;1.0555133;1.0538156;1.0522363;1.0508922;1.0493835;1.0478704;1.0463994;1.0448943;1.0434852;1.0422266;1.040817;1.0395348;1.0379589;1.0361638;1.0343519;1.0323218;1.0303408;1.028349;1.0263464;1.0243452;1.0223651;1.02029;1.0182195;1.0160397;1.0137564;1.0114533;1.0090507;1.0066862;1.0043082;1.0019104;0.9994656;0.9970941;0.9947445;0.9923415;0.9901083;0.9880156;0.9858556;0.9837345;0.9816406;0.9795462;0.9774621;0.975346;0.9733943;0.971561;0.9696698;0.967935;0.9660968;0.9641758;0.9621411;0.9602674;0.9584453;0.9566327;0.9548736;0.9531299;0.9514396;0.9496622;0.9478414;0.9460943;0.9442491;0.9425602;0.9410636;0.9394893;0.9379551;0.9363728;0.9348704;0.9333582;0.9319221;0.9305697;0.9292057;0.9279327;0.9265053;0.9249403;0.9235502;0.9221091;0.9207714;0.9196573;0.9184728;0.9171716;0.9160182;0.9150143;0.9139494;0.9128715;0.9118592;0.9108188;0.9096856;0.9086516;0.90771;0.9067232;0.905607;0.9047568;0.9040786;0.9033501;0.9027963;0.9021639;0.9014676;0.9007632;0.9000278;0.8993428;0.898681;0.8980921;0.8976277;0.8973652;0.8970126;0.8966743;0.8963711;0.8961465;0.8957995;0.8954365;0.8950648;0.8945137;0.894126;0.8939144;0.8936085;0.8932152;0.892996;0.892874;0.8925776;0.8923739;0.8923182;0.8921081;0.8917659;0.8915428;0.8913707;0.8911338;0.8909227;0.8906353;0.8903196;0.8899282;0.8894419;0.8889976;0.8884525;0.8879837;0.8876562;0.8871971;0.8866694;0.8862056;0.8855659;0.88484;0.8842008;0.8836292;0.8828488;0.8820022;0.8811582;0.8801557;0.8791825;0.8782422;0.87731;0.8762899;0.8753499;0.8744859;0.8736224;0.8727505;0.8719032;0.871152;0.8703572;0.869307;0.8684167;0.8674969;0.8665459;0.8657424;0.8651112;0.8644013;0.8637006;0.8630319;0.8624126;0.8617402;0.8610442;0.860391;0.8596858;0.8591008;0.8585903;0.8581289;0.8578224;0.8574007;0.856886;0.8565077;0.8561413;0.8557873;0.8556492;0.8555149;0.8553011;0.8551294;0.855034;0.8549625;0.8549684;0.8549888;0.8552331;0.8556199;0.8560215;0.8565777;0.8572067;0.8578018;0.8585901;0.8595104;0.8606391;0.8620059;0.8633772;0.8649495;0.8665366;0.8680755;0.8697596;0.8716099;0.8735184;0.8755348;0.8776139;0.8796352;0.8816672;0.8840426;0.8865657;0.8891575;0.8921141;0.8948647;0.8975297;0.9002603;0.9030463;0.9058419;0.9085945;0.9114479;0.9144413;0.9173365;0.9202335;0.9231514;0.9260941;0.9289255;0.9316419;0.9344769;0.9373111;0.940113;0.9431232;0.945909;0.9483945;0.9510132;0.9535923;0.956211;0.9588568;0.9615122;0.9640376;0.9664402;0.9687809;0.9709616;0.9732776;0.9754712;0.9779786;0.9808143;0.9833179;0.9858945;0.9882803;0.990304;0.9925805;0.9948551;0.9972849;0.9997268;1.0024304;1.0053768;1.0084019;1.0117564;1.0149469;1.0182124;1.0213501;1.024261;1.027383;1.0307225;1.0338014;1.0369985;1.0398979;1.0427936;1.0450041;1.0467556;1.0481566;1.0490196;1.0492498;1.0489405;1.0490264;1.048508;1.0474889;1.0463675;1.0448538;1.0437591;1.0424492;1.041598;1.0411364;1.040779;1.0404614;1.0405362;1.0410535;1.0415635;1.0421927;1.0431677;1.0444114;1.0457528;1.0473824;1.0491886;1.0511893;1.0532566;1.0555334;1.0580015;1.0606488;1.0632948;1.066227;1.0691003;1.0719395;1.0747706;1.0778294;1.0805907;1.0831618;1.085638;1.0880429;1.0901389;1.0921465;1.0937102;1.0949407;1.0957237;1.0959505;1.0959631;1.0949179;1.0946748;1.0945101;1.0946699;1.0956744;1.0964471;1.0970361;1.0979836;1.0995107;1.1005297;1.1013103;1.1023426;1.102996;1.1038607;1.1050004;1.1066314;1.1082273;1.1100218;1.1113716;1.1128081;1.1139846;1.1145605;1.1157597;1.1171999;1.118737;1.1204276;1.1221669;1.1241792;1.1258979;1.1274146;1.1294208;1.1317103;1.1334221;1.1355065;1.136669;1.136546;1.1376103;1.1385677;1.1403362;1.1429576;1.1455343;1.1489162;1.1512313;1.1536555;1.1549236;1.1545718;1.1556807;1.1564176;1.1582676;1.1615412;1.1639397;1.1669374;1.1685864;1.1688217;1.1707156;1.1727899;1.1743895;1.176825;1.1788727;1.1797458;1.1815735;1.184342;1.186878;1.1898165;1.1914947;1.1928899;1.1939422;1.1924753;1.1948031;1.1994846;1.2029445;1.2092087;1.2111198;1.2101713;1.2096394;1.205391;1.2066116;1.210328;1.2133331;1.2197493;1.2239141;1.2268687;1.2288849;1.2305601;1.2317611;1.2306317;1.2318256;1.2343514;1.2358356;1.2369334;1.2390695;1.2416104;1.244078;1.2478911;1.2497643;1.2497516;1.2530192;1.2571425;1.2607324;1.2669417;1.2684523;1.2660067;1.2680032;1.2694547;1.2728906;1.280697;1.2838465;1.2862201;1.286026;1.2839488;1.2863925;1.2845795;1.2837429;1.2880501;1.2905234;1.2923275;1.2957025;1.2960353;1.2953442;1.2991339;1.3084848;1.3131346;1.3150958;1.3168759;1.309014;1.3063616;1.3031331;1.3027695;1.3070848;1.3102731;1.3184199;1.3216465;1.3199624;1.3208573;1.3213168;1.3187803;1.3147982;1.3125362;1.3060789;1.3046806;1.3093368;1.3137773;1.3238679;1.3255655;1.3236178;1.3203298;1.3066405;1.302412
0.9791147;0.9597068;0.9348524;0.9781176;0.9674699;0.9321889;0.909755;0.9221538;0.9203467;0.9244526;0.9289759;0.8980923;0.8990031;0.9178013;0.9282859;0.9075313;0.8970971;0.8983518;0.8997409;0.8898253;0.8822292;0.8804278;0.8815816;0.8878561;0.8882878;0.882072;0.8812883;0.8778807;0.8751596;0.8769866;0.8849074;0.8864056;0.8827153;0.8798228;0.874763;0.8726997;0.8753034;0.8806465;0.8811368;0.8780057;0.8747587;0.8758308;0.8784115;0.8797362;0.8777755;0.8723962;0.8709372;0.8742569;0.8784384;0.875859;0.8724433;0.8721507;0.8744367;0.875434;0.8752328;0.8747229;0.8739512;0.8730972;0.8720016;0.8706157;0.8704092;0.8707927;0.8712591;0.8715795;0.8720588;0.8724405;0.8722511;0.8703598;0.8713073;0.8729942;0.8721685;0.8725413;0.8723101;0.8712784;0.8707279;0.8710743;0.8711727;0.8705937;0.8705757;0.8714097;0.8717793;0.8706645;0.8702482;0.8711547;0.8716333;0.8689151;0.8679813;0.8680798;0.8682767;0.8688104;0.8683044;0.8676889;0.8679159;0.8671275;0.8668876;0.867409;0.8678638;0.8675991;0.8672832;0.8671989;0.8665844;0.8671641;0.8681889;0.8683766;0.8674906;0.8669783;0.8669016;0.8663703;0.8665684;0.8666073;0.8661019;0.8661101;0.8661423;0.8657936;0.8650301;0.8654011;0.8655033;0.8650945;0.8649768;0.8648527;0.864798;0.8647692;0.8643082;0.8641614;0.8642666;0.8643138;0.8644529;0.8646005;0.8645549;0.8640531;0.8638067;0.8638558;0.8640091;0.8639234;0.8632939;0.862811;0.8632655;0.8627988;0.8623995;0.8625323;0.8627473;0.8629695;0.8628946;0.8624158;0.8620449;0.8622388;0.8622847;0.8611213;0.8609493;0.8611411;0.8611557;0.8610861;0.86119;0.8612303;0.8609875;0.8609301;0.8606847;0.8604496;0.860764;0.8606036;0.8603959;0.8604226;0.8602096;0.8600799;0.8601198;0.8602141;0.8596086;0.8594363;0.8597426;0.8594295;0.8590505;0.8590228;0.8593985;0.859395;0.8590075;0.8586174;0.8586624;0.858308;0.8581126;0.8582422;0.8581572;0.8576576;0.8573562;0.8576709;0.857406;0.8576158;0.8579541;0.8572145;0.857098;0.8570286;0.856691;0.8570238;0.8570552;0.8569402;0.8570946;0.8569701;0.8567539;0.8566954;0.8570345;0.8571247;0.8569282;0.8565466;0.8559661;0.8558143;0.8558543;0.8554521;0.8550708;0.8546393;0.8541638;0.853862;0.8534712;0.8531081;0.8528931;0.852439;0.8520507;0.8518249;0.8516484;0.8514411;0.8513655;0.8514819;0.8514438;0.8518792;0.8522744;0.8518366;0.8517883;0.8519083;0.8518374;0.8512179;0.8508318;0.8506775;0.8505546;0.8503749;0.8502243;0.8501895;0.8503048;0.8500447;0.849539;0.8490881;0.8491437;0.8491844;0.8492537;0.8494642;0.8491092;0.8488118;0.848735;0.8484604;0.8483218;0.8481827;0.8479149;0.8477182;0.847543;0.8474291;0.847414;0.8470173;0.8467404;0.8467581;0.8465007;0.8461258;0.8457884;0.8456131;0.8455256;0.8454273;0.8452634;0.8450198;0.8445667;0.8442196;0.8441371;0.8438563;0.8437154;0.8435602;0.8431149;0.8430968;0.8430406;0.8427216;0.8424123;0.8420703;0.8417861;0.8416387;0.8415647;0.8414664;0.8413454;0.8412645;0.841;0.8406575;0.8403516;0.8401125;0.8397278;0.8393139;0.8390611;0.838716;0.8385094;0.8384336;0.8381802;0.8377141;0.8372764;0.8370282;0.8366562;0.8364636;0.8363172;0.8358969;0.8357056;0.8354511;0.8350288;0.834782;0.8345739;0.8342484;0.8337806;0.8337805;0.8335539;0.8330551;0.8328001;0.8324921;0.8320412;0.8315219;0.8313414;0.8310521;0.8306276;0.830225;0.8299856;0.8296455;0.829221;0.8290762;0.8287594;0.8283712;0.8280541;0.8276761;0.8271532;0.8265777;0.8261334;0.8257913;0.8254995;0.8252133;0.8249086;0.8244478;0.8240492;0.8238815;0.8235086;0.8230288;0.8225067;0.821979;0.8215122;0.8209417;0.8203202;0.820232;0.8197355;0.8189999;0.8185433;0.8185205;0.8181203;0.817351;0.8170033;0.8167129;0.8162261;0.815508;0.8150012;0.8144386;0.8138258;0.8132709;0.8127847;0.8122609;0.8117125;0.8112838;0.8108638;0.8103695;0.8098019;0.8093701;0.8088773;0.8082792;0.8076439;0.8072651;0.8068154;0.8061939;0.8056457;0.8052249;0.8047121;0.8039765;0.8033254;0.8030359;0.8028009;0.8021081;0.8015594;0.801048;0.8005015;0.7999889;0.7993271;0.7988138;0.7985955;0.7979699;0.7973047;0.7968351;0.7966244;0.7960693;0.7952897;0.7945634;0.7942557;0.7938493;0.7933344;0.792831;0.7924547;0.7919855;0.791384;0.790761;0.7905122;0.7901166;0.7893444;0.7884468;0.7878991;0.787566;0.7871264;0.7861617;0.7854683;0.785102;0.7847458;0.7843395;0.7838543;0.7833059;0.7827492;0.7820945;0.7814429;0.7809352;0.7807833;0.7803538;0.7795854;0.7787465;0.7784008;0.7781052;0.7776285;0.7770018;0.7762659;0.7756482;0.7752047;0.7746202;0.774105;0.7736696;0.7732205;0.7724928;0.7719114;0.7714695;0.770892;0.7704357;0.7698541;0.7691261;0.7686138;0.7682418;0.7678515;0.7673151;0.7666609;0.7660484;0.7655874;0.7652725;0.7646534;0.7639756;0.7633929;0.7629085;0.7624564;0.7618982;0.7612394;0.7607705;0.7603998;0.7599067;0.7591601;0.7584897;0.7578421;0.7572882;0.7569036;0.7563233;0.7555268;0.7547913;0.7546074;0.7541656;0.75358;0.7530097;0.7523231;0.7517732;0.7513322;0.7508378;0.7500009;0.7493262;0.7489319;0.7486452;0.7481359;0.74747;0.7467874;0.7462478;0.7458454;0.7454594;0.7449275;0.7440558;0.7433444;0.7428838;0.7425483;0.7420009;0.7413636;0.7407493;0.740239;0.7397318;0.7392303;0.7386779;0.7379859;0.737273;0.7367592;0.7364376;0.7359725;0.7352498;0.7344894;0.7338754;0.733282;0.7328356;0.7322861;0.7314479;0.7308489;0.7303869;0.7299471;0.7294081;0.7286733;0.7280148;0.7275254;0.7270954;0.7266292;0.7260341;0.7253261;0.7246586;0.7241864;0.723767;0.7232116;0.7223777;0.7215844;0.7209225;0.7204009;0.7200913;0.7194013;0.7184584;0.7176902;0.717257;0.7168968;0.716424;0.7157956;0.7154099;0.714838;0.7141184;0.7136939;0.7130464;0.7123637;0.7118313;0.7114947;0.7111291;0.7106029;0.7099004;0.7091579;0.7086663;0.708177;0.7074914;0.7068747;0.7062207;0.7057226;0.7054151;0.7045282;0.7038924;0.7034159;0.7027432;0.7021587;0.7015299;0.7009134;0.7003984;0.6996751;0.6990343;0.6985843;0.6982298;0.6976399;0.6968922;0.6961727;0.6956819;0.6952885;0.6947619;0.6941459;0.6937222;0.6931207;0.6924592;0.6918448;0.6912844;0.6908267;0.6902193;0.6894603;0.6889367;0.688516;0.6881099;0.6875988;0.6868402;0.6865647;0.6861551;0.6853521;0.6850184;0.6844237;0.6838652;0.6834959;0.6827416;0.6822372;0.6819048;0.68152;0.6809772;0.680224;0.6796056;0.6792681;0.6787062;0.6783349;0.6780643;0.6776675;0.6769376;0.6765501;0.6762042;0.6755908;0.6750568;0.6744285;0.673989;0.6737326;0.6727647;0.6721577;0.6716786;0.6709831;0.6703002;0.6698289;0.6694333;0.6690295;0.6688561;0.6681057;0.667165;0.6665309;0.666256;0.6658463;0.6650138;0.663972;0.6635821;0.6629398;0.6625104;0.6623384;0.6615133;0.6608151;0.660181;0.6595989;0.6592581;0.658519;0.657968;0.6577505;0.6573193;0.6565834;0.6557061;0.6549488;0.6545181;0.6539783;0.6535206;0.6528907;0.6540911;0.6534911;0.6527668;0.6521227;0.6515724;0.6510657;0.6505399;0.6501012;0.6496176;0.6491274;0.6485631;0.6479738;0.6474172;0.6467978;0.6461794;0.645584;0.6450181;0.6444345;0.6438541;0.6433064;0.6427576;0.6422334;0.6417339;0.6411619;0.6405877;0.6400097;0.6393095;0.638711;0.6382148;0.6376797;0.6371147;0.6366324;0.6361411;0.6355796;0.6350924;0.6345166;0.6339433;0.6333541;0.6327859;0.6322061;0.6316232;0.6310135;0.6304521;0.6298795;0.629366;0.6289432;0.6284957;0.6279873;0.6274311;0.6267385;0.6261023;0.6256089;0.6250834;0.6245741;0.6241636;0.6236711;0.6231227;0.6226267;0.6221582;0.6216413;0.6211532;0.6205385;0.6199097;0.6193897;0.618775;0.6181938;0.617696;0.6171539;0.6166643;0.6162164;0.6157355;0.615247;0.6147417;0.6142214;0.6136921;0.6131328;0.6125869;0.6121235;0.6117154;0.6112406;0.6107519;0.6102586;0.6097394;0.6092891;0.6088828;0.6084336;0.6079883;0.6075758;0.6072186;0.6067892;0.6063499;0.6059123;0.6054079;0.6049147;0.6044796;0.6040138;0.6035847;0.6031131;0.6026292;0.6021918;0.6016576;0.6011643;0.6006955;0.6001915;0.5997792;0.599373;0.5990002;0.598619;0.5982316;0.5977788;0.5973081;0.5968614;0.5964252;0.59604;0.5956733;0.5952514;0.594812;0.5944034;0.5940336;0.5936632;0.5932826;0.5929225;0.5925838;0.5922428;0.5919103;0.5916213;0.591337;0.5910059;0.5907391;0.5905078;0.5902762;0.590079;0.5898607;0.5896412;0.5894054;0.5891843;0.5890684;0.5889761;0.5889636;0.588911;0.5888601;0.5888166;0.5887401;0.5887622;0.5888017;0.5888223;0.588887;0.5888671;0.5887715;0.5887199;0.5886115;0.5884577;0.5883386;0.5881904;0.5880454;0.5879101;0.587738;0.5875663;0.58735;0.5870534;0.5867978;0.5865417;0.5863011;0.5860326;0.5857546;0.5854462;0.5850879;0.5847219;0.5843768;0.584063;0.5837206;0.5833887;0.5830826;0.5827661;0.5824372;0.582117;0.5818061;0.5814876;0.5811435;0.5808281;0.58053;0.5802472;0.5799448;0.5796476;0.5793372;0.5789929;0.5786462;0.5783362;0.5780031;0.5776614;0.5773175;0.5769685;0.5766011;0.5762058;0.5758503;0.5755245;0.5751718;0.5748364;0.5744703;0.5740718;0.5736472;0.5732738;0.5729177;0.5725279;0.5721594;0.5717698;0.571354;0.5709513;0.5705772;0.5701465;0.5696821;0.5692269;0.5687512;0.5682724;0.5677941;0.5673109;0.5668135;0.5663146;0.5658223;0.5653152;0.5647933;0.5642633;0.5637413;0.5632299;0.5627125;0.5621989;0.5616885;0.5611585;0.560667;0.560206;0.5597307;0.5592617;0.558812;0.5583469;0.5579175;0.557532;0.5571371;0.5567555;0.5563758;0.5560202;0.5556332;0.5552273;0.5548315;0.5544143;0.5539627;0.5535531;0.5531459;0.5527722;0.5524276;0.5520813;0.5517691;0.5514244;0.5510621;0.5507152;0.5503672;0.5500165;0.5496619;0.5493285;0.5489849;0.5486683;0.5484134;0.5481153;0.5477968;0.5474895;0.547181;0.5468446;0.5465495;0.5462895;0.5460019;0.5457094;0.5454286;0.5451394;0.544869;0.5446162;0.5443643;0.5441147;0.5438775;0.5436459;0.5434291;0.5432276;0.5430304;0.5428392;0.5426628;0.5425162;0.542346;0.5421659;0.5419992;0.5418308;0.541638;0.541487;0.541373;0.5412292;0.5410854;0.5409457;0.540786;0.5406581;0.5405489;0.5404457;0.5403568;0.5402719;0.5401962;0.5401247;0.5400392;0.5399972;0.5399798;0.5399724;0.5400085;0.5400329;0.5400463;0.5400803;0.5401177;0.5401566;0.5402154;0.5402846;0.5403724;0.540471;0.5405892;0.5407277;0.5408724;0.5410365;0.5412042;0.5413688;0.5415626;0.5417697;0.5419965;0.5422571;0.5425127;0.5427769;0.5430452;0.5433046;0.5435926;0.543893;0.54422;0.5445515;0.544889;0.5452562;0.5455987;0.5459536;0.5463223;0.546689;0.5470438;0.547422;0.5478227;0.5482146;0.5486315;0.5490036;0.5493486;0.549702;0.5500135;0.5503706;0.5507695;0.5511442;0.5515241;0.5519023;0.5522601;0.5526403;0.5530284;0.5534343;0.553845;0.5542479;0.5546949;0.5551704;0.5556385;0.5561679;0.5567581;0.5573664;0.5580605;0.5588269;0.5596622;0.5605485;0.5615199;0.5625577;0.5637057;0.5649148;0.5662624;0.5677196;0.5693167;0.5710291;0.5728859;0.5748576;0.5770229;0.5793824;0.5818502;0.5844696;0.5872391;0.5901635;0.5931796;0.5963472;0.5996827;0.6031178;0.6066402;0.6102162;0.6138529;0.6175322;0.6212815;0.6249546;0.6286933;0.632336;0.6359441;0.6394168;0.6428347;0.6461461;0.649346;0.6523871;0.6553361;0.6581545;0.6607956;0.6633193;0.6657606;0.6680172;0.6701001;0.6720189;0.6737429;0.6753907;0.6768961;0.6782696;0.679548;0.6807603;0.681856;0.6828348;0.6837409;0.6845265;0.6851586;0.6857306;0.6862659;0.6867052;0.6871007;0.6874291;0.6876966;0.6878746;0.6880418;0.6881799;0.6882527;0.6882779;0.6882522;0.6881429;0.6880428;0.6879135;0.6877747;0.6876354;0.6874442;0.6872172;0.6869718;0.6866595;0.6863927;0.6861389;0.6858696;0.6856217;0.6853516;0.6850685;0.6847563;0.6844472;0.6841406;0.6838394;0.6835374;0.6831834;0.6828095;0.6824206;0.6819916;0.6815905;0.6811672;0.6806959;0.6801907;0.6796032;0.6789668;0.6782904;0.6775469;0.676757;0.6759145;0.6750544;0.674135;0.6732094;0.6722611;0.6713028;0.6703181;0.6693368;0.6683559;0.6673526;0.6663411;0.6652949;0.664224;0.6631423;0.6620338;0.6609165;0.6597701;0.6586567;0.6575555;0.6564252;0.6552895;0.6541627;0.6530241;0.6518908;0.6507742;0.6496536;0.6485345;0.6473698;0.646247;0.6451326;0.644008;0.6429139;0.6418017;0.6406977;0.6396134;0.6385221;0.6374289;0.6363542;0.6352935;0.6342093;0.6331336;0.6320727;0.6310226;0.6299908;0.6289641;0.6279434;0.6269126;0.6258606;0.6247999;0.6237383;0.6226726;0.6215847;0.620511;0.6194302;0.6183856;0.6173524;0.6163192;0.6153215;0.6143152;0.6132885;0.6122988;0.6113265;0.6103598;0.6094051;0.6084696;0.6075547;0.6066474;0.6057627;0.6048639;0.6039517;0.6030638;0.6021852;0.6013185;0.600471;0.5996282;0.5988044;0.5979578;0.5970987;0.5962589;0.5954033;0.5945784;0.5937968;0.5929937;0.5921701;0.5913804;0.5905977;0.5898351;0.5891178;0.5883956;0.5876483;0.5869424;0.5862744;0.5856003;0.5849241;0.5842946;0.5836285;0.5829462;0.5822858;0.5816312;0.5809931;0.5803452;0.5796709;0.5790111;0.5783955;0.5777777;0.5771688;0.5766232;0.5760736;0.5755069;0.574973;0.5744283;0.5738531;0.5732905;0.5727558;0.5722217;0.5716869;0.5711461;0.5706056;0.5700495;0.5694629;0.5688949;0.5683079;0.5677224;0.5671977;0.5666711;0.5661216;0.5655916;0.565047;0.5644804;0.5639725;0.5634923;0.5630249;0.5625722;0.5621025;0.5616345;0.5611724;0.5607256;0.5602549;0.5597861;0.5593652;0.5589449;0.5585587;0.5582044;0.5578076;0.5573903;0.5570012;0.5566355;0.5562857;0.5559531;0.5556037;0.5552476;0.5549114;0.5545812;0.5542391;0.5539157;0.5535744;0.5532072;0.5528456;0.5524828;0.5521306;0.5517749;0.551429;0.5510833;0.550784;0.5505091;0.5502235;0.549979;0.5496954;0.549364;0.5490927;0.5488507;0.5486004;0.5483724;0.5481281;0.5478582;0.5476434;0.5474404;0.5472755;0.5471644;0.5470148;0.5468726;0.5467366;0.5465824;0.5464937;0.5463861;0.5462739;0.5462259;0.5461599;0.5460935;0.5460789;0.5460701;0.546115;0.5461725;0.5462489;0.5463511;0.5464324;0.5465806;0.5467397;0.5468672;0.5470535;0.5472502;0.5474458;0.5476919;0.5479359;0.548196;0.5485052;0.5488178;0.5491265;0.5494388;0.5497914;0.5501591;0.5505285;0.5509847;0.5514632;0.5519207;0.5524075;0.5528839;0.5533267;0.5537894;0.5542392;0.5547501;0.5553365;0.5558699;0.5564386;0.5569671;0.5573926;0.5578848;0.558413;0.5589337;0.5594862;0.5600211;0.5605372;0.5610624;0.5615857;0.5621161;0.5626552;0.5631893;0.5637255;0.5642632;0.5647887;0.5653355;0.5659279;0.5664577;0.5669527;0.5674715;0.5679679;0.5684578;0.5689873;0.5694611;0.569872;0.5703084;0.5707335;0.5711717;0.5716587;0.5720417;0.5724091;0.5726923;0.5728996;0.5730309;0.5730953;0.5731045;0.573002;0.572925;0.5728272;0.5726945;0.57252;0.5723708;0.5721841;0.5720618;0.5719715;0.5719019;0.5718502;0.571858;0.5719027;0.571978;0.572098;0.572298;0.5725415;0.5728734;0.5732045;0.5735641;0.5739106;0.5742516;0.5746209;0.5750025;0.5753792;0.5757788;0.576178;0.5766043;0.5769629;0.5773392;0.5776166;0.5777799;0.5779445;0.5780536;0.5781602;0.5782443;0.5783195;0.5783538;0.5784255;0.5785435;0.5785807;0.5785953;0.5786051;0.5785439;0.5785224;0.5785552;0.5785135;0.5783934;0.5783775;0.578366;0.5784034;0.5785545;0.5786041;0.5785659;0.5785303;0.5784773;0.5784464;0.5784574;0.5784612;0.5784956;0.57852;0.5785401;0.5785525;0.5785647;0.5786015;0.5785973;0.578556;0.5785314;0.5784981;0.5784458;0.5784051;0.5822122;0.5822178;0.5821653;0.582086;0.5819882;0.581844;0.5817573;0.5817167;0.5816047;0.5814775;0.5813971;0.5812207;0.5809193;0.5807129;0.5805603;0.5803266;0.5800232;0.5798044;0.5795897;0.5793151;0.5791997;0.579211;0.5791733;0.5792013;0.5791873;0.5791318;0.5791432;0.5791559;0.5792106;0.5793658;0.5794654;0.5795748;0.5796952;0.579829;0.5799063;0.5800831;0.580306;0.5805625;0.5808434;0.5812072;0.5816108;0.5820468;0.5825888;0.5832194;0.583895;0.5846472;0.585446;0.5862604;0.5871693;0.5882145;0.5893817;0.5906026;0.5919138;0.5933383;0.5947996;0.596429;0.5981981;0.6001018;0.6021432;0.6043031;0.6065904;0.6090237;0.6115855;0.614283;0.6171102;0.6199967;0.6231904;0.626599;0.6301724;0.6339793;0.6381199;0.6424475;0.6469206;0.6515277;0.6561879;0.6610181;0.6659788;0.6709553;0.6760353;0.6813437;0.6866236;0.6918642;0.697129;0.7023166;0.7074575;0.7125496;0.7175307;0.7225351;0.7273489;0.7319362;0.7364273;0.7406845;0.7447595;0.7486996;0.7524474;0.7559687;0.7593424;0.7625;0.765377;0.7679219;0.7703037;0.772548;0.7744709;0.7762112;0.7778605;0.7793393;0.7807407;0.7820562;0.7832203;0.7842488;0.785128;0.7858585;0.7865225;0.7871346;0.7876588;0.7881152;0.7884452;0.7887166;0.7890291;0.7892807;0.7894948;0.7897438;0.7898996;0.7899565;0.7899888;0.7900035;0.7899382;0.7898808;0.7897919;0.7896656;0.7894861;0.7892731;0.7889768;0.7887062;0.7884182;0.7881569;0.7878374;0.7874019;0.7869709;0.7865061;0.7859984;0.7855125;0.785003;0.784442;0.7839248;0.7834555;0.7829064;0.7823506;0.7817503;0.7810938;0.7805206;0.7798733;0.7791743;0.7785111;0.7777591;0.7771153;0.7766181;0.7759888;0.7753527;0.7746741;0.7739229;0.7731283;0.772383;0.7716663;0.7709282;0.7701918;0.7694651;0.7687297;0.7680047;0.7672797;0.7665737;0.7659078;0.7651985;0.7644815;0.7637321;0.762886;0.7619875;0.761086;0.7601154;0.7592195;0.7583321;0.7574469;0.7566333;0.7557264;0.7547771;0.7538288;0.7528493;0.7518257;0.750827;0.7498057;0.7488332;0.7478791;0.7469299;0.7459736;0.7451035;0.7442828;0.7434503;0.7426826;0.7419122;0.741108;0.7403448;0.7395881;0.7388853;0.7381325;0.7373604;0.7365831;0.7358125;0.7350035;0.7341738;0.7333336;0.7323932;0.7315611;0.7307654;0.7300171;0.7292606;0.7285605;0.7278597;0.7271273;0.726463;0.725906;0.7252575;0.724592;0.723923;0.7231398;0.7224911;0.7219619;0.7213758;0.7207997;0.7202913;0.7197155;0.7190279;0.7184894;0.7180057;0.7175463;0.7171807;0.716773;0.7163857;0.7159718;0.7155414;0.7151138;0.7146797;0.7141986;0.7138286;0.7135278;0.7131609;0.7128233;0.7124782;0.7120798;0.7117163;0.711412;0.7110708;0.7107608;0.7103535;0.709904;0.7094244;0.7088954;0.7082758;0.7076687;0.7070445;0.7064046;0.7057352;0.7050393;0.7043259;0.703604;0.7028335;0.7020807;0.7013177;0.7005792;0.6999003;0.6991434;0.6983594;0.6975504;0.6967859;0.6959583;0.6952204;0.6945792;0.6938874;0.693168;0.6925029;0.6918544;0.6912352;0.6906221;0.6900793;0.6896548;0.6891481;0.6886511;0.6881616;0.6876194;0.6869796;0.6864153;0.6858467;0.6853313;0.6848647;0.6843681;0.6838914;0.6834268;0.6829199;0.6824745;0.6821194;0.6817133;0.6813049;0.6808876;0.6804931;0.6800877;0.6796844;0.6793319;0.6789043;0.6783973;0.6779602;0.6775351;0.6771013;0.6766666;0.6762792;0.6758732;0.6755243;0.675257;0.6749823;0.6747257;0.6744648;0.6742761;0.6741449;0.673978;0.6738673;0.6736923;0.6734693;0.6732545;0.6730132;0.6728114;0.6726219;0.6724296;0.6722541;0.6720729;0.6718481;0.671678;0.6715021;0.6714284;0.6713759;0.6713724;0.6713174;0.6712247;0.6712391;0.6712885;0.6713279;0.6714445;0.6715506;0.6716611;0.6717126;0.6717919;0.6718181;0.6717611;0.6716914;0.6715347;0.6715105;0.6714754;0.6713827;0.6713418;0.6713666;0.6713629;0.6713179;0.6713314;0.6714275;0.671426;0.6714041;0.671383;0.6713052;0.671252;0.6712561;0.6711643;0.6710454;0.6708819;0.6705691;0.6703644;0.6702063;0.6700193;0.6698622;0.6697722;0.6696046;0.6693716;0.6691899;0.6690086;0.6688386;0.6687475;0.6685155;0.6682367;0.6679272;0.6675209;0.6671146;0.666667;0.6662436;0.6657465;0.665341;0.665041;0.664674;0.6643306;0.6640707;0.6637928;0.6635687;0.6633818;0.6633103;0.6630778;0.662847;0.6625195;0.6619672;0.6616421;0.6614094;0.6611239;0.6609108;0.6606979;0.6603956;0.6601768;0.6600619;0.6599333;0.6598378;0.6597224;0.6596578;0.6595279;0.6592714;0.6590165;0.6587163;0.6584887;0.6583387;0.6582634;0.658256;0.6583213;0.6583803;0.6585407;0.6586197;0.6586057;0.6587848;0.6590943;0.6592896;0.6594868;0.6597769;0.6599684;0.6603081;0.6608628;0.6613837;0.6619199;0.6624981;0.6631067;0.6637744;0.6645179;0.6652628;0.6659272;0.6666939;0.6674601;0.6681938;0.6689524;0.6698039;0.6705868;0.6713116;0.6720515;0.6727991;0.6735633;0.6743055;0.6750849;0.6759174;0.6766918;0.6773734;0.6782269;0.6792476;0.6801028;0.6810029;0.6818277;0.6824948;0.6831561;0.6837881;0.6844531;0.6850279;0.6856751;0.6863586;0.6871713;0.6879601;0.6886854;0.6893924;0.6900305;0.6907509;0.6914337;0.6922066;0.6931414;0.6938612;0.6945949;0.6951051;0.6953269;0.6957669;0.6960626;0.6966122;0.6974294;0.6981311;0.6989034;0.6996428;0.7003269;0.7010725;0.701782;0.7026401;0.7036164;0.7045836;0.7056816;0.7067389;0.7078307;0.7088329;0.7098969;0.7107751;0.7116384;0.7121991;0.712476;0.7126582;0.7126759;0.712352;0.7120024;0.7116619;0.7113507;0.7109369;0.7106735;0.7105722;0.7102984;0.7099537;0.7096869;0.7092538;0.7092276;0.709517;0.7096073;0.7098494;0.7100076;0.709936;0.7101536;0.7106515;0.7109383;0.7112313;0.711494;0.7115867;0.7118541;0.712123;0.7126115;0.7132628;0.7139736;0.7149347;0.715803;0.7167653;0.7175812;0.7183643;0.7190555;0.7195138;0.7201264;0.7209014;0.7214245;0.7219251;0.7222912;0.7223699;0.7224621;0.7225473;0.7225243;0.7222555;0.7221497;0.7220513;0.7219926;0.7219264;0.7220725;0.7224976;0.7227347;0.723006;0.7233353;0.723443;0.7237136;0.7243082;0.7248109;0.7251385;0.7254238;0.7255582;0.7253489;0.7256808;0.7261837;0.726619;0.7274481;0.7276949;0.7275204;0.7276627;0.7277265;0.7278465;0.7280896;0.7283537;0.7284862;0.7289307;0.7296082;0.7303012;0.7312396;0.7318892;0.7325737;0.733031;0.7330479;0.7336362;0.7345513;0.734982;0.7356039;0.7357736;0.7352117;0.7351249;0.7349662;0.7352885;0.7359849;0.7365109;0.7372749;0.7380416;0.7387882;0.7393813;0.7401579;0.7407125;0.7407691;0.7412896;0.7421973;0.7426378;0.7430126;0.7432678;0.7429747;0.7433977;0.7440499;0.7449175;0.7464604;0.7473639;0.7482953;0.7487501;0.7483755;0.7489258;0.7496163;0.7504816;0.7524183;0.7527834;0.7521051;0.7521656;0.7514521;0.7518857;0.7536874;0.7543626;0.7548862;0.7554033;0.7552439;0.7557657;0.7567534;0.7574353;0.7584653;0.7588752;0.7587137;0.7591936;0.7594512;0.7601828;0.7616115;0.7625498;0.7635608;0.7642554;0.7650276;0.7646943;0.7633724;0.7629089;0.7616554;0.7620646;0.7638769;0.7649981;0.7665856;0.7675889;0.7685158;0.7686251;0.7686235;0.7695967;0.7702194;0.7710147;0.7731858;0.7752482;0.7754793;0.7757663;0.7754688;0.7732594;0.7725188;0.7736809;0.7741603;0.7739682;0.7741233;0.7732159;0.7723927;0.7736791;0.7743043;0.774613;0.7752196;0.7764674;0.7767788;0.7763354;0.7763935;0.7761543;0.7757028;0.7757206;0.7751726;0.7730621;0.7726694;0.7734185;0.7739489;0.7748907;0.7763455;0.7782918;0.7798746;0.7821938;0.7836717
1.4551647;1.3807998;1.2011385;1.2459276;1.18989;1.1902333;1.2352756;1.2214416;1.1979036;1.1828225;1.1839765;1.2026004;1.2082188;1.2190042;1.2454003;1.2682022;1.2421356;1.2037717;1.1912339;1.1819371;1.1944236;1.2149631;1.2119992;1.2096093;1.2014171;1.1936469;1.2092437;1.2224041;1.2206701;1.2082;1.2185943;1.2147537;1.2093974;1.2230822;1.2089835;1.2092087;1.2229788;1.2136037;1.2141441;1.2180791;1.2165642;1.2061523;1.2088492;1.2138652;1.2072276;1.1998297;1.2009997;1.2076995;1.2099513;1.2096884;1.2057607;1.2035489;1.2163556;1.2175859;1.2093767;1.2016566;1.2040642;1.2075371;1.2080753;1.2055749;1.2079504;1.2066795;1.2022102;1.2042396;1.2070869;1.2099702;1.2113433;1.2048676;1.2069418;1.2096221;1.2021468;1.2052678;1.2018024;1.1938684;1.198083;1.1961454;1.1921521;1.1904854;1.1898385;1.1900141;1.1904173;1.1898898;1.1850921;1.1816432;1.1808789;1.1806816;1.1777177;1.1759068;1.1770152;1.1780703;1.1751173;1.1703718;1.1674538;1.1677126;1.1676996;1.1672994;1.1685182;1.1686064;1.1676904;1.1658437;1.1619982;1.1619604;1.163631;1.1632228;1.1606888;1.158214;1.1569166;1.1568102;1.1551508;1.1545393;1.1554818;1.1532249;1.1512167;1.1498791;1.1488087;1.1483903;1.1476871;1.1464621;1.145142;1.1443938;1.1432757;1.1415602;1.141187;1.140099;1.1385534;1.1375229;1.1369594;1.1363765;1.1353625;1.1336766;1.132149;1.1318084;1.1324483;1.1307603;1.1286848;1.1271535;1.1264993;1.1262176;1.124692;1.1221744;1.1211479;1.1214206;1.1212263;1.1193975;1.1177918;1.1164389;1.1150836;1.1133583;1.1116114;1.1107762;1.1108873;1.1106484;1.1085064;1.1065034;1.1064996;1.1052262;1.1044824;1.1041224;1.1026658;1.1019951;1.1015846;1.1008719;1.0998816;1.0995799;1.0993094;1.0980891;1.0965499;1.0958068;1.0956215;1.0944797;1.0937872;1.0932126;1.0922393;1.0907604;1.0891669;1.087522;1.0857633;1.0842403;1.0829264;1.0816413;1.0800587;1.0782789;1.0765622;1.0751768;1.074321;1.0735058;1.0724622;1.0711592;1.0702465;1.069364;1.0683618;1.0677673;1.0677508;1.0681177;1.0685701;1.0692432;1.0699011;1.0706629;1.0719994;1.0722271;1.0717818;1.07109;1.0690675;1.066736;1.063988;1.0602764;1.0566694;1.0533503;1.0504776;1.0483395;1.0471479;1.0467895;1.0468413;1.0461217;1.0455642;1.0450877;1.0437144;1.0423958;1.0405921;1.0381242;1.0361269;1.0351852;1.0345318;1.0330284;1.0320221;1.0308101;1.0288045;1.0258143;1.022944;1.0209534;1.0201143;1.0197101;1.0194287;1.0189797;1.0181652;1.0175369;1.0168197;1.0159876;1.0157942;1.0153002;1.01475;1.0146221;1.0141402;1.0136214;1.0130684;1.0120906;1.0113716;1.0106313;1.0095859;1.0085911;1.0075957;1.006578;1.0054849;1.0038576;1.0025047;1.0015744;0.9998249;0.9984349;0.9971823;0.9956115;0.994389;0.9931486;0.9917215;0.9901671;0.9884518;0.9869451;0.9857859;0.9843798;0.9831234;0.9818548;0.9802734;0.9791616;0.9780394;0.9766822;0.9753943;0.974211;0.9730116;0.9716949;0.9704235;0.969422;0.9685936;0.9675835;0.966202;0.9647105;0.9633896;0.9624276;0.9612249;0.9598434;0.9585732;0.9572861;0.9561792;0.9551462;0.9537341;0.9524556;0.9511853;0.9497895;0.9485826;0.9473452;0.9460387;0.9447368;0.9435123;0.9422126;0.9408537;0.9397566;0.9385116;0.9371493;0.9358294;0.9346203;0.9333916;0.9320655;0.9306339;0.9292797;0.9279251;0.9265003;0.9250828;0.9237521;0.9224026;0.9209169;0.9196608;0.9182407;0.9166079;0.9151742;0.9137654;0.9124573;0.9112245;0.9095321;0.9079491;0.9064595;0.9047707;0.9032302;0.9018242;0.900459;0.8989801;0.8974045;0.8956839;0.8938608;0.8924224;0.890703;0.888827;0.8874708;0.8860681;0.8843629;0.8824176;0.880779;0.879061;0.8771757;0.8752231;0.8738152;0.8720852;0.8700379;0.8685102;0.8668612;0.8649671;0.8629314;0.8611566;0.8592477;0.8573759;0.8558065;0.8538452;0.8518124;0.8499313;0.8482138;0.8464611;0.8446711;0.8428712;0.8410031;0.839167;0.8372878;0.8352919;0.8338258;0.8321955;0.8301808;0.8282751;0.8267688;0.8252298;0.8233129;0.8214655;0.8199897;0.8186218;0.8168798;0.8151726;0.8135688;0.8120319;0.8104466;0.8084364;0.8065634;0.8052324;0.8036149;0.8018455;0.800155;0.7987396;0.797012;0.7951351;0.7933472;0.7918769;0.7904432;0.7888059;0.7869474;0.7854605;0.7839966;0.7823907;0.7806474;0.7791798;0.777809;0.7763258;0.7745745;0.7730541;0.7716995;0.770285;0.768525;0.7668557;0.7654668;0.7643263;0.7629675;0.7614498;0.7599382;0.7586406;0.7570809;0.7554803;0.7540628;0.7527546;0.7514131;0.7498433;0.7479908;0.7465315;0.7452286;0.7438549;0.7422715;0.7407247;0.7392408;0.7378101;0.736454;0.7348634;0.7332606;0.7318962;0.7303942;0.7288928;0.7274531;0.726066;0.7246272;0.7230864;0.7214568;0.7198373;0.7185034;0.717295;0.7159693;0.7144094;0.7128177;0.7114489;0.7104155;0.7089385;0.7073658;0.7059218;0.7046165;0.703429;0.7020195;0.7003711;0.6991702;0.6979253;0.6966029;0.6952525;0.6937472;0.6922309;0.6908333;0.6896086;0.688203;0.6865953;0.6850143;0.683863;0.6825702;0.6811168;0.6796222;0.6782846;0.6768614;0.6754663;0.674185;0.672586;0.6710798;0.6697683;0.6685369;0.6671949;0.6656865;0.6641123;0.6627028;0.6614856;0.6602502;0.6588542;0.6573919;0.6558466;0.6544082;0.6531779;0.6518272;0.650431;0.6490322;0.6476709;0.6463682;0.6452163;0.6440868;0.6426989;0.6411446;0.6398492;0.6388559;0.6376178;0.6362411;0.6348485;0.633549;0.6323697;0.6312598;0.6300108;0.6285055;0.6271173;0.6258581;0.6247061;0.6235647;0.6221333;0.6207012;0.6194046;0.6181856;0.6170387;0.6157555;0.6142979;0.6128892;0.6116202;0.6104339;0.6092474;0.6080062;0.6066073;0.6051773;0.6038815;0.6028295;0.6015423;0.6000799;0.5987281;0.5976172;0.5964584;0.5951992;0.5939474;0.5926674;0.5913434;0.5900695;0.5889865;0.5878245;0.58658;0.585286;0.5839974;0.5830238;0.5820212;0.580801;0.5796635;0.5785879;0.5774355;0.5761694;0.5750536;0.5739501;0.5729741;0.5721471;0.5709568;0.5697664;0.5686694;0.5676326;0.5666209;0.565587;0.564511;0.5633827;0.5621235;0.5610936;0.5602095;0.5591436;0.5581715;0.5570264;0.5557635;0.5547095;0.5538296;0.5529066;0.5518736;0.5508487;0.5498528;0.5488552;0.547843;0.5468472;0.5460802;0.5451966;0.5440909;0.5431065;0.5420176;0.5411406;0.5404906;0.5394913;0.5383884;0.5373772;0.5365579;0.5358717;0.5347816;0.5338092;0.5332953;0.5327322;0.5318565;0.530929;0.5301997;0.5295808;0.5290043;0.528371;0.5276753;0.5271125;0.5266894;0.5262806;0.5257443;0.5249937;0.5246312;0.5241898;0.5232924;0.5224828;0.5217654;0.5212132;0.520711;0.5197508;0.5187584;0.5178487;0.5169765;0.5159436;0.5152729;0.5144728;0.5133407;0.5128066;0.5116777;0.510553;0.5098151;0.5086212;0.5077428;0.5069003;0.5058188;0.5046667;0.5034101;0.5024666;0.5017828;0.500567;0.4993944;0.4983723;0.4973345;0.4959838;0.4954419;0.4943936;0.4927887;0.4921578;0.4913383;0.4902033;0.4889529;0.487922;0.4870225;0.4860297;0.4848839;0.481906;0.4808377;0.4797802;0.4786702;0.477686;0.4768026;0.4758567;0.4749911;0.4739774;0.4728027;0.4718187;0.4708943;0.4699021;0.4689907;0.4680337;0.4669276;0.4659242;0.4649524;0.4640934;0.4632179;0.4623008;0.4614007;0.4605242;0.4595962;0.4586119;0.4577084;0.4568357;0.4559273;0.4550711;0.4541656;0.4531893;0.4522335;0.451342;0.4504309;0.4495006;0.4485294;0.4475839;0.4466004;0.4456668;0.4447862;0.4438782;0.4429603;0.4420529;0.4411106;0.4402364;0.4393989;0.4385943;0.4377775;0.4369566;0.4360816;0.4352121;0.4343937;0.4335872;0.432763;0.4319432;0.4311261;0.4302958;0.4294866;0.4286863;0.4279102;0.4271609;0.4263896;0.4256176;0.4248768;0.4240949;0.423303;0.4225487;0.4218296;0.4211015;0.4203424;0.4196215;0.4189039;0.4182171;0.4175796;0.4169203;0.4162661;0.4156037;0.414989;0.4143968;0.413748;0.4131018;0.4124621;0.4118187;0.4112313;0.4106806;0.4101251;0.4094993;0.4089245;0.4084168;0.4078579;0.4072595;0.4067327;0.406203;0.405611;0.4051039;0.4046052;0.4040964;0.403596;0.403051;0.4025168;0.4019852;0.4014744;0.4010269;0.4005474;0.4000574;0.3996029;0.3991739;0.3986984;0.3982168;0.3977806;0.3973496;0.3969424;0.3965662;0.3961688;0.3957107;0.3952632;0.3948707;0.3945004;0.3941646;0.3938378;0.3935216;0.3932594;0.393035;0.3928471;0.3927096;0.3926211;0.3925543;0.3925444;0.3925896;0.3926955;0.3928849;0.3931515;0.3934918;0.3939101;0.3944146;0.3949758;0.3956331;0.3963682;0.3972121;0.398036;0.3989259;0.3998355;0.4007621;0.4017056;0.4026694;0.4036064;0.4045106;0.405337;0.4061166;0.4068626;0.4074955;0.4080866;0.4086429;0.4090797;0.4094312;0.409692;0.4098828;0.4099767;0.4100279;0.4100034;0.4099365;0.4098012;0.4096409;0.4094631;0.4092787;0.4090414;0.4087504;0.4084301;0.4081048;0.4077986;0.4074949;0.4071798;0.4068469;0.4065314;0.4062057;0.405904;0.4056233;0.4053417;0.4050341;0.404806;0.4046219;0.4044601;0.4043045;0.4041295;0.4039192;0.4036683;0.4034321;0.4032214;0.4029876;0.4027487;0.4024861;0.4022162;0.4019194;0.4015971;0.4012618;0.4009133;0.4005505;0.4001583;0.3997701;0.3993767;0.39897;0.3985829;0.3981605;0.397688;0.3972296;0.3967527;0.3962651;0.395753;0.3952696;0.3946795;0.394021;0.3933518;0.3926445;0.3918925;0.3910995;0.3902833;0.3894086;0.3885369;0.3876595;0.3867663;0.3858734;0.3849191;0.3839451;0.3829924;0.3820907;0.3812047;0.38033;0.379493;0.3786778;0.377856;0.3770767;0.3763523;0.3756295;0.3748916;0.3742232;0.3736114;0.3730035;0.3724726;0.371884;0.3712586;0.3706667;0.3700718;0.3694659;0.3689197;0.3683521;0.3678029;0.3672459;0.3667289;0.3662375;0.3657517;0.3652979;0.3648229;0.364327;0.3638739;0.3634258;0.3630061;0.3626247;0.3622505;0.3618906;0.3615399;0.3612178;0.3608851;0.3605245;0.3602207;0.3599128;0.3596018;0.3593315;0.3590999;0.3588505;0.358605;0.3583865;0.3581764;0.3579768;0.3578075;0.3576328;0.3574342;0.3572874;0.357175;0.3570669;0.3569964;0.3569159;0.3568164;0.3567542;0.3566954;0.3566745;0.3566969;0.356734;0.3567779;0.3568425;0.3569188;0.3569956;0.3571071;0.3572409;0.3573985;0.3575734;0.3577836;0.3580197;0.3582852;0.3585887;0.3589014;0.359218;0.3595893;0.3599905;0.3604217;0.3608905;0.3613986;0.3619386;0.3625066;0.3630986;0.363747;0.3644373;0.3651635;0.3659113;0.3667008;0.3675322;0.3683826;0.3692781;0.3702149;0.371217;0.3722759;0.3733387;0.3744388;0.3755949;0.3767593;0.377987;0.3793146;0.3806387;0.3819841;0.3833486;0.3847259;0.386153;0.3876117;0.3891079;0.3906336;0.3921638;0.3937284;0.3953;0.3968729;0.3984641;0.4000782;0.4017078;0.4033227;0.4049638;0.406595;0.4082098;0.4098173;0.4114469;0.413051;0.4146139;0.4162059;0.4177924;0.4194094;0.4210421;0.4226901;0.4243551;0.4260579;0.4277563;0.4295251;0.4313535;0.4331957;0.4351522;0.4372005;0.4393059;0.4415571;0.4439873;0.4465204;0.449278;0.4522046;0.4553852;0.4587277;0.4623779;0.4662402;0.4705237;0.4751593;0.4801221;0.4854073;0.4912082;0.4974461;0.5040976;0.5112643;0.5189731;0.5272316;0.535912;0.5452024;0.5549661;0.5653288;0.5759752;0.5870642;0.598744;0.6107112;0.6230487;0.6356478;0.6484457;0.6613988;0.6745794;0.6875921;0.7008583;0.7138351;0.7266518;0.7391621;0.7515252;0.763477;0.7749562;0.785987;0.7965919;0.8067487;0.8162764;0.8253309;0.8338022;0.8418134;0.8491455;0.8559927;0.8622386;0.8680907;0.8733265;0.8781405;0.8825158;0.8865247;0.8901557;0.8932969;0.8961599;0.8986803;0.9008264;0.9027448;0.9043882;0.9058157;0.9070799;0.9081331;0.9090453;0.9098322;0.9103814;0.9107113;0.9109176;0.9109003;0.9108212;0.9106086;0.9103206;0.9099091;0.9094729;0.9089674;0.9083922;0.9077622;0.9070511;0.9062394;0.9054167;0.9045346;0.9036341;0.9027038;0.9017438;0.9007547;0.8997355;0.8986523;0.8975616;0.8964653;0.8952566;0.8940327;0.8926959;0.8912002;0.8896446;0.8878883;0.8860505;0.8841529;0.8820266;0.8797603;0.8773121;0.8746524;0.8718995;0.8689813;0.8659137;0.862786;0.8595056;0.8561717;0.8527802;0.8493031;0.8457389;0.8421031;0.8383739;0.8346699;0.8309184;0.8271052;0.823262;0.8194106;0.8155095;0.8115999;0.8076645;0.80378;0.7998948;0.7959838;0.7921084;0.7882183;0.784285;0.7803589;0.77641;0.7725391;0.7687278;0.7648591;0.7609556;0.7570785;0.7532219;0.7493904;0.7456213;0.741886;0.7380984;0.7342722;0.7305056;0.7267985;0.7231423;0.7195081;0.715861;0.7122663;0.7086928;0.7051283;0.7016104;0.6980734;0.6945677;0.6910945;0.6876338;0.6842152;0.6808441;0.6774796;0.6741457;0.6708546;0.6676109;0.6643963;0.6611899;0.6580439;0.6549113;0.651756;0.6486585;0.6455927;0.6425827;0.6396182;0.6366726;0.6337715;0.6309175;0.628085;0.6252781;0.6225322;0.619786;0.6170416;0.6143284;0.6116322;0.6089843;0.6063762;0.6037629;0.6011484;0.5986123;0.5961149;0.5936424;0.5912353;0.5888508;0.5864689;0.5841162;0.5817804;0.5795152;0.5773019;0.5751079;0.5729421;0.570862;0.5688406;0.5668153;0.5648882;0.5629739;0.5610551;0.5591846;0.557303;0.5554791;0.5536795;0.551842;0.5500398;0.5482702;0.5465453;0.544824;0.5430962;0.5414519;0.5398111;0.5381368;0.5365196;0.534912;0.5332929;0.5317338;0.5302001;0.5286791;0.5271544;0.5256136;0.5241042;0.5226028;0.5211508;0.5197266;0.518296;0.5168843;0.5154605;0.5140911;0.5127665;0.5114362;0.5101234;0.5088081;0.5075125;0.5062643;0.5050541;0.5038736;0.5027127;0.501545;0.5003986;0.4992686;0.4981288;0.4970456;0.4960123;0.4949846;0.4939722;0.492986;0.4920091;0.4910185;0.4900481;0.4891054;0.4881466;0.4872022;0.4862751;0.4853556;0.4844704;0.4836175;0.482751;0.4819048;0.4810703;0.4802248;0.4794094;0.478617;0.4778404;0.4770861;0.4763137;0.4755506;0.4748127;0.4740491;0.4733571;0.4727411;0.4720764;0.4714008;0.470789;0.4701777;0.4696063;0.4691106;0.468582;0.4680337;0.4675441;0.4670768;0.4666433;0.4662589;0.4658595;0.4654578;0.4651237;0.4648062;0.4645624;0.4643555;0.4641508;0.4640064;0.463923;0.4638706;0.4638641;0.4638908;0.4639456;0.4640436;0.464198;0.4644013;0.4646502;0.4649341;0.4652306;0.4655738;0.4659905;0.4664293;0.4668904;0.4673969;0.4678822;0.4683971;0.4690284;0.4697114;0.4704421;0.4712858;0.4721853;0.4731298;0.474168;0.4752646;0.47643;0.477625;0.4788901;0.48017;0.4814699;0.4828062;0.4841571;0.4855723;0.4870646;0.4885582;0.4900831;0.4916478;0.4932405;0.4948447;0.4964559;0.4981468;0.4998842;0.5016393;0.5034783;0.5053148;0.5071459;0.509001;0.5109099;0.5127969;0.5147017;0.516564;0.5184124;0.5202351;0.522013;0.5237914;0.5255575;0.5273126;0.5290568;0.5307793;0.5325009;0.5341712;0.5358332;0.5374033;0.5389087;0.5403641;0.5417998;0.5430538;0.5442549;0.5452296;0.5460252;0.5466225;0.5470292;0.5472723;0.5472915;0.5472009;0.5469163;0.5466206;0.5461379;0.5458059;0.5454434;0.5452431;0.5450938;0.5451467;0.5453222;0.5456874;0.5462393;0.5468974;0.5477197;0.5487406;0.5498704;0.5511996;0.5525972;0.5541244;0.5556838;0.557341;0.5590264;0.5608129;0.5625267;0.5642828;0.5659536;0.5675904;0.5690941;0.5705254;0.5718358;0.5729989;0.5740789;0.5750644;0.5759461;0.576694;0.5773771;0.5779449;0.5784805;0.5789377;0.5793641;0.5797175;0.5800914;0.5804163;0.5807788;0.5811536;0.5815463;0.5819486;0.5823686;0.5828249;0.5832491;0.5836629;0.5841084;0.5845481;0.5850048;0.5854537;0.5858917;0.5863006;0.5867012;0.5871466;0.5874695;0.5877992;0.5881125;0.5883744;0.5886465;0.5888489;0.588949;0.5890683;0.5891345;0.589245;0.5894243;0.5962448;0.5962843;0.5962706;0.5962428;0.5962022;0.5960912;0.5960205;0.5960385;0.5959426;0.5958021;0.5956323;0.5954337;0.5950686;0.5949202;0.5948104;0.5947762;0.5949578;0.5949912;0.5949456;0.5949669;0.5950313;0.5950295;0.5951726;0.5954077;0.5957044;0.5960377;0.5964634;0.5969988;0.5975784;0.598174;0.5988629;0.5996177;0.600369;0.6013346;0.602393;0.6036041;0.6050043;0.6064872;0.6080626;0.6097815;0.6115991;0.613521;0.6156528;0.6178221;0.6203974;0.6232376;0.6263136;0.6296274;0.6333258;0.6372787;0.641425;0.6458942;0.6507006;0.65597;0.6616395;0.6676811;0.6741312;0.6811058;0.6885989;0.6964139;0.7047769;0.7137485;0.723218;0.7333988;0.7440697;0.7554414;0.7675272;0.7804452;0.7938036;0.8079628;0.8230001;0.8385133;0.8548071;0.871705;0.8889406;0.9065662;0.9247611;0.9428197;0.9611092;0.9799436;0.9984906;1.0169481;1.0352763;1.0530353;1.0704067;1.0872018;1.1033202;1.1187303;1.1336021;1.1474186;1.1604679;1.1724844;1.1835395;1.1936954;1.2027642;1.2110658;1.2186261;1.2254475;1.2315823;1.236797;1.2414787;1.2457291;1.2494606;1.2527374;1.2557658;1.2585278;1.2606331;1.2625241;1.2643971;1.2658193;1.2667221;1.2677333;1.2685905;1.2692478;1.2700371;1.2705737;1.2710936;1.2714729;1.2718065;1.2720811;1.2721937;1.2720903;1.2720441;1.2717708;1.2717575;1.2721063;1.2720712;1.2720248;1.2718978;1.2714;1.2711134;1.2707614;1.2704264;1.2700304;1.2695944;1.2691703;1.2685766;1.268033;1.2675539;1.2667755;1.2661594;1.2657368;1.2651346;1.2646391;1.2637714;1.2624761;1.2614795;1.26045;1.2593888;1.2583886;1.2573454;1.256012;1.2545841;1.2533202;1.2521117;1.2509793;1.2500424;1.2489297;1.2478026;1.2466043;1.2453289;1.2439122;1.2425123;1.2414353;1.2401105;1.2387559;1.2372777;1.235671;1.2340541;1.2323965;1.2307023;1.2290152;1.2271688;1.2252223;1.2232668;1.2215104;1.2197139;1.2177794;1.2159268;1.2139345;1.2116337;1.2095338;1.2075843;1.2054563;1.2032059;1.2010537;1.1988449;1.1967766;1.1945583;1.1922866;1.1901782;1.1881082;1.1859086;1.1839021;1.1816642;1.1791071;1.1766822;1.174234;1.1718023;1.1693387;1.1669654;1.1646019;1.1623621;1.1599807;1.1574941;1.155107;1.1527175;1.1502757;1.1479423;1.1455188;1.1429191;1.1404281;1.1379923;1.1355283;1.1330686;1.1306493;1.1281559;1.1256145;1.1230879;1.1204098;1.1180111;1.1158119;1.1134934;1.1113139;1.1090612;1.1066518;1.1043108;1.1019979;1.0997614;1.0974559;1.0950683;1.0928383;1.09062;1.0884954;1.0864903;1.084505;1.0826303;1.0806818;1.0787431;1.0768106;1.0748675;1.0728148;1.0709959;1.0693262;1.0675424;1.0658251;1.0640743;1.0622642;1.0604569;1.0587467;1.0569025;1.0550379;1.0530219;1.0509151;1.0487165;1.0464144;1.0439217;1.0415519;1.0390913;1.0367945;1.0346637;1.0323411;1.0300533;1.0276463;1.0250303;1.0225177;1.0200222;1.0175121;1.0150846;1.0125278;1.0099095;1.0071975;1.0046015;1.0019246;0.999387;0.9969283;0.9945508;0.992269;0.989961;0.9877908;0.9855185;0.9831487;0.9808362;0.9784845;0.9762107;0.9739752;0.9718058;0.9696187;0.9674757;0.9653224;0.9630534;0.9610508;0.9592529;0.9573192;0.9555839;0.9536151;0.9513181;0.9492877;0.9472945;0.9453355;0.9435261;0.9416645;0.9399465;0.9382868;0.9366042;0.9350348;0.9334101;0.9317197;0.9300582;0.9283847;0.9268327;0.9253501;0.9238169;0.922268;0.9208692;0.9195001;0.9181448;0.9168895;0.9157983;0.9145493;0.9131916;0.9119197;0.9105973;0.9094695;0.9084534;0.907418;0.9065158;0.9055675;0.9045704;0.9036149;0.9026645;0.9017959;0.9010236;0.900187;0.8993388;0.898578;0.8977758;0.8969368;0.8962271;0.8955866;0.8950241;0.8945193;0.8941153;0.8938899;0.893572;0.8933451;0.8929898;0.892552;0.8921088;0.891578;0.8910828;0.8905703;0.8900926;0.8895783;0.8890833;0.8886486;0.8882211;0.8878367;0.8874984;0.8872112;0.8870113;0.8867075;0.886462;0.8861296;0.8856628;0.8852317;0.8847894;0.8843601;0.883942;0.8834945;0.8831344;0.8826097;0.8819593;0.8812644;0.8805593;0.8797631;0.879114;0.8786252;0.8779065;0.8771809;0.8763526;0.8753222;0.8743845;0.8733842;0.8724966;0.8716941;0.8708378;0.869986;0.8692129;0.86844;0.8676533;0.8668537;0.866228;0.8656072;0.8650385;0.8644633;0.8637879;0.8630626;0.8620925;0.8614162;0.8608479;0.8602814;0.8597823;0.8593493;0.8589539;0.858604;0.858427;0.8581232;0.8577935;0.8574535;0.8569341;0.8566338;0.8564312;0.856275;0.8562742;0.8563021;0.85631;0.8563379;0.8563071;0.856377;0.8563546;0.8562534;0.8562257;0.8560994;0.856262;0.8564639;0.8570094;0.8579636;0.8587477;0.8596582;0.8605897;0.8614336;0.8624659;0.8636967;0.8649446;0.8662415;0.8676127;0.8690224;0.8705623;0.872194;0.8739517;0.8757802;0.8778768;0.8800367;0.8822351;0.8845522;0.8869997;0.8894289;0.8919755;0.8944375;0.8968063;0.8994763;0.902319;0.9050248;0.9078828;0.9106603;0.9131547;0.9159822;0.9192045;0.9220988;0.9249722;0.927798;0.9303747;0.9330778;0.9357458;0.938582;0.9417044;0.9445524;0.9474167;0.9501914;0.9528216;0.9551741;0.9576025;0.9602108;0.962624;0.9646614;0.9669458;0.9691156;0.9715636;0.9742852;0.9767843;0.9793015;0.9817986;0.9840753;0.9866803;0.9895154;0.9923022;0.9952831;0.9980792;1.0006285;1.0035383;1.006531;1.0096695;1.0132252;1.0165637;1.0198317;1.0231193;1.0263331;1.0296589;1.0331538;1.0365075;1.0401019;1.0432297;1.0464863;1.0488169;1.0503755;1.0515734;1.0520873;1.0517788;1.0517884;1.0520359;1.0516632;1.0512354;1.0502224;1.0483676;1.0471811;1.0457511;1.0450118;1.0447109;1.0444936;1.0445948;1.0448687;1.0452315;1.046116;1.0475982;1.0488311;1.0502888;1.0518582;1.0532715;1.0551012;1.0573319;1.0596488;1.0621967;1.0648539;1.0676441;1.070763;1.0743706;1.0776231;1.0810781;1.0843447;1.0874159;1.0902479;1.0931748;1.0955838;1.0969789;1.0990202;1.1019478;1.1033818;1.1040784;1.1048722;1.1042392;1.1041514;1.1046636;1.1050748;1.1051164;1.105526;1.1062483;1.1071404;1.1084284;1.109567;1.1107501;1.1120497;1.1130029;1.1144943;1.1167245;1.1188028;1.120488;1.1221136;1.1241925;1.126194;1.1277318;1.1296861;1.1311096;1.1313825;1.1327456;1.1348987;1.136271;1.137532;1.1384964;1.1388502;1.1400548;1.1413392;1.1429386;1.1450758;1.1472553;1.1497867;1.1518123;1.1540872;1.1557757;1.1565922;1.1579846;1.1591551;1.1612452;1.1642416;1.1661973;1.1685028;1.1700324;1.1699587;1.1716188;1.1746947;1.1755456;1.1757342;1.1764879;1.1752417;1.1765431;1.1802022;1.1827695;1.1856344;1.1885287;1.1918643;1.1939909;1.1958007;1.1972002;1.1971418;1.1982028;1.1997275;1.2009633;1.2019924;1.2037401;1.2061568;1.2074478;1.2092131;1.2099221;1.2086651;1.2090431;1.2091291;1.2110467;1.2153885;1.2170203;1.2185451;1.2198876;1.2191335;1.2200311;1.2224472;1.2241898;1.2256088;1.2268558;1.2279646;1.229647;1.2312634;1.2330407;1.2357597;1.2378954;1.2388685;1.2416559;1.2460426;1.2483714;1.2516413;1.2521621;1.2488697;1.2499326;1.2520286;1.2521377;1.2531674;1.2543802;1.2537858;1.2548977;1.2585794;1.2601974;1.2594593;1.2620412;1.267691;1.2724088;1.2762216;1.2759482;1.2735797;1.2753479;1.2785246;1.285249;1.2913212;1.2864879;1.2840484;1.2868725;1.2859631;1.2895653;1.2925828;1.2905917;1.2928152;1.2977654;1.2991129;1.2953444;1.2935038;1.2897668;1.2890748;1.2905105;1.2939554;1.3027931;1.3089184;1.3174169;1.3196583;1.3159361;1.3127367;1.3052301;1.3006291;1.2961936;1.2933053;1.2936242;1.2910753;1.2853664;1.2854586
