1100;1102;1104;1106;1108;1110;1112;1114;1116;1118;1120;1122;1124;1126;1128;1130;1132;1134;1136;1138;1140;1142;1144;1146;1148;1150;1152;1154;1156;1158;1160;1162;1164;1166;1168;1170;1172;1174;1176;1178;1180;1182;1184;1186;1188;1190;1192;1194;1196;1198;1200;1202;1204;1206;1208;1210;1212;1214;1216;1218;1220;1222;1224;1226;1228;1230;1232;1234;1236;1238;1240;1242;1244;1246;1248;1250;1252;1254;1256;1258;1260;1262;1264;1266;1268;1270;1272;1274;1276;1278;1280;1282;1284;1286;1288;1290;1292;1294;1296;1298;1300;1302;1304;1306;1308;1310;1312;1314;1316;1318;1320;1322;1324;1326;1328;1330;1332;1334;1336;1338;1340;1342;1344;1346;1348;1350;1352;1354;1356;1358;1360;1362;1364;1366;1368;1370;1372;1374;1376;1378;1380;1382;1384;1386;1388;1390;1392;1394;1396;1398;1400;1402;1404;1406;1408;1410;1412;1414;1416;1418;1420;1422;1424;1426;1428;1430;1432;1434;1436;1438;1440;1442;1444;1446;1448;1450;1452;1454;1456;1458;1460;1462;1464;1466;1468;1470;1472;1474;1476;1478;1480;1482;1484;1486;1488;1490;1492;1494;1496;1498;1500;1502;1504;1506;1508;1510;1512;1514;1516;1518;1520;1522;1524;1526;1528;1530;1532;1534;1536;1538;1540;1542;1544;1546;1548;1550;1552;1554;1556;1558;1560;1562;1564;1566;1568;1570;1572;1574;1576;1578;1580;1582;1584;1586;1588;1590;1592;1594;1596;1598;1600;1602;1604;1606;1608;1610;1612;1614;1616;1618;1620;1622;1624;1626;1628;1630;1632;1634;1636;1638;1640;1642;1644;1646;1648;1650;1652;1654;1656;1658;1660;1662;1664;1666;1668;1670;1672;1674;1676;1678;1680;1682;1684;1686;1688;1690;1692;1694;1696;1698;1700;1702;1704;1706;1708;1710;1712;1714;1716;1718;1720;1722;1724;1726;1728;1730;1732;1734;1736;1738;1740;1742;1744;1746;1748;1750;1752;1754;1756;1758;1760;1762;1764;1766;1768;1770;1772;1774;1776;1778;1780;1782;1784;1786;1788;1790;1792;1794;1796;1798;1800;1802;1804;1806;1808;1810;1812;1814;1816;1818;1820;1822;1824;1826;1828;1830;1832;1834;1836;1838;1840;1842;1844;1846;1848;1850;1852;1854;1856;1858;1860;1862;1864;1866;1868;1870;1872;1874;1876;1878;1880;1882;1884;1886;1888;1890;1892;1894;1896;1898;1900;1902;1904;1906;1908;1910;1912;1914;1916;1918;1920;1922;1924;1926;1928;1930;1932;1934;1936;1938;1940;1942;1944;1946;1948;1950;1952;1954;1956;1958;1960;1962;1964;1966;1968;1970;1972;1974;1976;1978;1980;1982;1984;1986;1988;1990;1992;1994;1996;1998;2000;2002;2004;2006;2008;2010;2012;2014;2016;2018;2020;2022;2024;2026;2028;2030;2032;2034;2036;2038;2040;2042;2044;2046;2048;2050;2052;2054;2056;2058;2060;2062;2064;2066;2068;2070;2072;2074;2076;2078;2080;2082;2084;2086;2088;2090;2092;2094;2096;2098;2100;2102;2104;2106;2108;2110;2112;2114;2116;2118;2120;2122;2124;2126;2128;2130;2132;2134;2136;2138;2140;2142;2144;2146;2148;2150;2152;2154;2156;2158;2160;2162;2164;2166;2168;2170;2172;2174;2176;2178;2180;2182;2184;2186;2188;2190;2192;2194;2196;2198;2200;2202;2204;2206;2208;2210;2212;2214;2216;2218;2220;2222;2224;2226;2228;2230;2232;2234;2236;2238;2240;2242;2244;2246;2248;2250;2252;2254;2256;2258;2260;2262;2264;2266;2268;2270;2272;2274;2276;2278;2280;2282;2284;2286;2288;2290;2292;2294;2296;2298;2300;2302;2304;2306;2308;2310;2312;2314;2316;2318;2320;2322;2324;2326;2328;2330;2332;2334;2336;2338;2340;2342;2344;2346;2348;2350;2352;2354;2356;2358;2360;2362;2364;2366;2368;2370;2372;2374;2376;2378;2380;2382;2384;2386;2388;2390;2392;2394;2396;2398;2400;2402;2404;2406;2408;2410;2412;2414;2416;2418;2420;2422;2424;2426;2428;2430;2432;2434;2436;2438;2440;2442;2444;2446;2448;2450;2452;2454;2456;2458;2460;2462;2464;2466;2468;2470;2472;2474;2476;2478;2480;2482;2484;2486;2488;2490;2492;2494;2496;2498
0.0465041;0.0463485;0.0462297;0.0462051;0.0461827;0.0461915;0.0463285;0.0464971;0.046735;0.0470968;0.047586;0.0482987;0.0491546;0.0502865;0.0517318;0.053413;0.0554359;0.0577459;0.0602627;0.0631132;0.0660538;0.0692163;0.0726101;0.0759395;0.0794437;0.0829849;0.0863582;0.0898361;0.09309;0.0962082;0.0992988;0.102107;0.104801;0.107391;0.109695;0.112064;0.11432;0.116482;0.118769;0.120926;0.12315;0.125356;0.127342;0.129353;0.131143;0.132713;0.134122;0.135217;0.136116;0.136733;0.137072;0.13717;0.136963;0.136509;0.135744;0.134748;0.13343;0.131847;0.130155;0.128224;0.126231;0.124218;0.122177;0.120215;0.118323;0.116492;0.114837;0.11326;0.1118;0.110544;0.109358;0.108325;0.107402;0.106568;0.105868;0.105205;0.104633;0.104117;0.103639;0.1032;0.102779;0.102382;0.101998;0.101605;0.101201;0.100775;0.100312;0.0998582;0.0993573;0.0988331;0.0983048;0.0977428;0.0972158;0.0966903;0.0961971;0.0957549;0.0953674;0.0950565;0.0948117;0.0946573;0.094599;0.0946228;0.0947708;0.0950138;0.0953861;0.0958903;0.0965247;0.0973009;0.0982555;0.09932;0.100605;0.101977;0.103596;0.105387;0.107278;0.109388;0.111631;0.114001;0.116584;0.119147;0.121932;0.124809;0.127668;0.13067;0.133644;0.136674;0.139749;0.142646;0.145589;0.148395;0.151039;0.153609;0.155991;0.15834;0.160614;0.162762;0.164987;0.167248;0.169623;0.17231;0.175117;0.178367;0.181935;0.185745;0.19006;0.194702;0.199894;0.205671;0.211686;0.218446;0.225641;0.233056;0.241216;0.24941;0.258136;0.267078;0.275775;0.284829;0.293581;0.302202;0.310821;0.318708;0.326512;0.333753;0.340401;0.346644;0.352101;0.357071;0.361592;0.365252;0.368619;0.371374;0.37378;0.375808;0.377452;0.378881;0.38006;0.380996;0.381844;0.382464;0.382994;0.383364;0.383592;0.383676;0.383628;0.383388;0.383027;0.382523;0.381848;0.381042;0.380104;0.37903;0.377928;0.376714;0.375403;0.374141;0.372731;0.371401;0.370001;0.368585;0.367238;0.365883;0.364526;0.363193;0.361852;0.360557;0.359271;0.358046;0.356827;0.355645;0.354534;0.353437;0.352451;0.351508;0.350636;0.349822;0.349072;0.348363;0.347759;0.34718;0.346725;0.34626;0.345795;0.345423;0.345046;0.344743;0.344391;0.344103;0.343806;0.343495;0.343193;0.342833;0.342496;0.342055;0.341598;0.34106;0.340456;0.339771;0.339004;0.338157;0.337166;0.336123;0.334982;0.333726;0.332326;0.330785;0.329242;0.327486;0.325749;0.323886;0.321916;0.319981;0.317931;0.315952;0.313898;0.311829;0.309834;0.30777;0.30581;0.303803;0.301832;0.299947;0.298018;0.296184;0.294381;0.29259;0.290899;0.289189;0.287589;0.286009;0.284452;0.283018;0.281603;0.28032;0.279072;0.277914;0.276901;0.275957;0.27517;0.274493;0.273918;0.273489;0.273173;0.272976;0.272969;0.27318;0.273655;0.274464;0.275561;0.277111;0.279033;0.281288;0.284032;0.286908;0.290065;0.293245;0.296303;0.299279;0.301882;0.304297;0.306298;0.307893;0.309154;0.310005;0.31064;0.311127;0.311515;0.311918;0.31231;0.31273;0.313172;0.313626;0.314063;0.314434;0.314762;0.315026;0.315251;0.315517;0.315898;0.316436;0.317122;0.317949;0.318833;0.319752;0.320619;0.321339;0.321992;0.322509;0.322931;0.323312;0.323586;0.323848;0.324034;0.324208;0.324361;0.324468;0.324535;0.324527;0.324342;0.323986;0.323427;0.322646;0.321709;0.320552;0.319258;0.317861;0.31637;0.314889;0.313323;0.311823;0.310323;0.308856;0.307505;0.306212;0.305043;0.303944;0.302961;0.302042;0.301155;0.300298;0.299365;0.298349;0.29723;0.296049;0.294818;0.293514;0.292214;0.290835;0.289457;0.288059;0.286606;0.285268;0.283943;0.282874;0.282027;0.281392;0.281041;0.281006;0.281261;0.281899;0.282879;0.284181;0.285937;0.288118;0.290853;0.293995;0.297748;0.301879;0.306443;0.311829;0.317872;0.32508;0.333213;0.342669;0.353257;0.364628;0.377353;0.390318;0.404493;0.418946;0.433793;0.44898;0.463345;0.477606;0.490584;0.503126;0.5145;0.525125;0.535111;0.543677;0.551649;0.558375;0.564125;0.568752;0.572236;0.574722;0.57596;0.576247;0.575508;0.573803;0.571337;0.568236;0.564656;0.560829;0.5566;0.552503;0.548085;0.543673;0.539346;0.534895;0.530623;0.526229;0.522037;0.517701;0.513555;0.50935;0.505142;0.501112;0.496944;0.493005;0.488959;0.485042;0.481143;0.477407;0.47376;0.470203;0.466974;0.463805;0.46094;0.458322;0.455982;0.45404;0.452339;0.451037;0.450076;0.449529;0.449314;0.449537;0.450167;0.451135;0.452444;0.454253;0.456318;0.458779;0.461518;0.464573;0.467774;0.471209;0.474871;0.478497;0.482403;0.486201;0.490157;0.494015;0.497881;0.501656;0.505314;0.508888;0.512164;0.515459;0.518456;0.521385;0.524187;0.526868;0.529353;0.531786;0.534155;0.536211;0.538341;0.540285;0.542125;0.543771;0.545378;0.546801;0.548078;0.549299;0.550232;0.551078;0.551851;0.552484;0.552872;0.553171;0.553359;0.553334;0.553195;0.55302;0.55265;0.552119;0.551488;0.550759;0.549809;0.548838;0.547661;0.546345;0.544905;0.543401;0.541831;0.540113;0.538412;0.536526;0.534646;0.53266;0.530583;0.528431;0.526143;0.523777;0.521469;0.519262;0.516869;0.514689;0.512462;0.510365;0.508102;0.506041;0.503844;0.501687;0.499404;0.497165;0.49486;0.492563;0.49023;0.48796;0.485738;0.483339;0.48107;0.478794;0.476596;0.474308;0.472159;0.470077;0.468173;0.466161;0.464234;0.462416;0.460719;0.459072;0.457343;0.455917;0.454589;0.453358;0.45226;0.451416;0.450811;0.450539;0.450482;0.450772;0.451594;0.452799;0.454457;0.45665;0.459279;0.462632;0.466371;0.470784;0.475556;0.480946;0.486482;0.492496;0.498437;0.504643;0.510742;0.516838;0.522784;0.528746;0.534563;0.540513;0.546318;0.552363;0.558096;0.563286;0.567823;0.571184;0.573418;0.57436;0.574352;0.573811;0.573414;0.573353;0.573898;0.575019;0.576984;0.579257;0.581793;0.58414;0.586135;0.587546;0.588415;0.588604;0.588513;0.588284;0.587907;0.587392;0.586652;0.58577;0.58482;0.58389;0.582929;0.582141;0.581423;0.580932;0.580554;0.58027;0.579741;0.57895;0.57792;0.576663;0.57531;0.574128;0.573132;0.572513;0.572303;0.572199;0.572141;0.572198;0.572348;0.572406;0.57234;0.572296;0.572156;0.571952;0.572048;0.572029;0.572139;0.5725;0.573163;0.574028;0.575236;0.576684;0.578386;0.580512;0.582934;0.585662;0.588559;0.591733;0.595063;0.598531;0.602086;0.605717;0.609447;0.613048;0.616881;0.620448;0.624211;0.627942;0.631806;0.635744;0.639832;0.643756;0.6481;0.652191;0.656478;0.660721;0.6649;0.668974;0.673199;0.676849;0.68101;0.684553;0.688189;0.691857;0.695558;0.699079;0.702584;0.705845;0.709005;0.711941;0.714753;0.717264;0.719482;0.721556;0.723239;0.724576;0.72575;0.726709;0.727484;0.727848;0.727915;0.727786;0.727504;0.72703
0.0469579;0.046817;0.0466632;0.0466015;0.0465991;0.0466394;0.0467013;0.0468167;0.0470445;0.0474189;0.0478709;0.0485289;0.0493376;0.0504377;0.0518037;0.05338;0.0553107;0.0574795;0.0598443;0.0625344;0.0653129;0.0682729;0.0714534;0.0745893;0.0779384;0.0812775;0.084463;0.0877739;0.0908991;0.0939153;0.0968747;0.0995805;0.10223;0.104765;0.107015;0.109331;0.111573;0.113733;0.115966;0.11808;0.120272;0.122409;0.12435;0.126291;0.128022;0.129533;0.13085;0.131899;0.13272;0.133287;0.133571;0.133607;0.13338;0.132891;0.132114;0.131092;0.129778;0.128229;0.126576;0.124705;0.12277;0.120848;0.118891;0.117002;0.115189;0.113433;0.11185;0.110321;0.108923;0.107711;0.106556;0.105571;0.104665;0.103864;0.103175;0.102543;0.101979;0.101485;0.101018;0.100594;0.100188;0.099798;0.0994439;0.0990622;0.0986659;0.0982708;0.0978387;0.097387;0.0968795;0.0963699;0.0958536;0.0952965;0.0947594;0.0942383;0.0937367;0.0933006;0.0928916;0.0925677;0.0923097;0.0921403;0.0920506;0.0920587;0.09218;0.0923774;0.0927258;0.0931825;0.0937729;0.094498;0.095392;0.0963829;0.0976079;0.0988989;0.10044;0.102155;0.103969;0.105985;0.108159;0.110443;0.112962;0.115466;0.118204;0.121048;0.123855;0.126861;0.129832;0.132874;0.135956;0.138851;0.141802;0.1446;0.147192;0.149724;0.152018;0.154274;0.156449;0.15852;0.160677;0.16287;0.165181;0.167779;0.17049;0.173583;0.176959;0.180571;0.184688;0.189142;0.194117;0.19972;0.205554;0.212087;0.219054;0.226336;0.234255;0.242203;0.250701;0.259419;0.267919;0.276786;0.285335;0.293823;0.302257;0.310019;0.317653;0.324812;0.331345;0.337518;0.342932;0.347835;0.352197;0.355809;0.359059;0.361751;0.364067;0.366067;0.36768;0.369091;0.370252;0.371196;0.372041;0.372673;0.373233;0.373601;0.373877;0.373969;0.373966;0.373772;0.373456;0.372962;0.372363;0.371623;0.370814;0.369867;0.368949;0.367903;0.366808;0.365719;0.364517;0.363317;0.362096;0.36084;0.35957;0.358282;0.356959;0.355661;0.354252;0.352955;0.351552;0.350234;0.348936;0.34769;0.346483;0.345382;0.34435;0.343399;0.342473;0.34168;0.340919;0.340246;0.339659;0.339145;0.33868;0.338233;0.337792;0.337445;0.337107;0.336798;0.336502;0.33624;0.335962;0.335706;0.335421;0.335131;0.334814;0.334445;0.334017;0.333519;0.332939;0.332299;0.331586;0.330756;0.32987;0.328872;0.327736;0.326502;0.325126;0.323637;0.322106;0.320388;0.318667;0.316842;0.314919;0.313014;0.311012;0.309048;0.307025;0.305003;0.303044;0.301003;0.299081;0.297128;0.29518;0.293335;0.291444;0.289666;0.287883;0.286116;0.28446;0.282767;0.281191;0.279641;0.278113;0.276726;0.275323;0.274042;0.272826;0.271687;0.270691;0.269771;0.26901;0.268357;0.2678;0.267396;0.267091;0.266931;0.26696;0.267203;0.267711;0.268577;0.269683;0.27125;0.273166;0.275411;0.278132;0.28094;0.284005;0.287067;0.289978;0.2928;0.295243;0.297462;0.299269;0.300656;0.301715;0.302418;0.302905;0.303301;0.303588;0.303928;0.304278;0.304678;0.305131;0.305549;0.305982;0.306391;0.306741;0.30705;0.307362;0.30775;0.308237;0.308842;0.30954;0.310364;0.311205;0.312067;0.312885;0.313512;0.314061;0.314472;0.3148;0.315094;0.315295;0.315479;0.315638;0.315803;0.315961;0.316101;0.316197;0.316223;0.316092;0.315768;0.315282;0.31451;0.313609;0.312513;0.311229;0.30988;0.308429;0.306993;0.3055;0.304057;0.302607;0.301193;0.299864;0.298601;0.297481;0.296438;0.295495;0.294639;0.293821;0.293021;0.292135;0.29116;0.2901;0.288944;0.287779;0.286528;0.285293;0.283989;0.282613;0.2812;0.279695;0.278327;0.277005;0.275951;0.275063;0.274412;0.274056;0.273998;0.274227;0.274803;0.275681;0.276989;0.278782;0.280982;0.283699;0.28664;0.290066;0.29385;0.298086;0.303188;0.308995;0.315978;0.323847;0.333013;0.343244;0.354236;0.366541;0.379131;0.3929;0.406937;0.421344;0.435985;0.44981;0.463502;0.476012;0.488125;0.499144;0.509379;0.519058;0.527334;0.53501;0.541485;0.547011;0.551403;0.554809;0.557171;0.558306;0.558518;0.557743;0.556012;0.553557;0.550532;0.54696;0.543201;0.539188;0.535132;0.530949;0.526736;0.522524;0.518268;0.514177;0.509966;0.505963;0.501864;0.497898;0.493948;0.489925;0.486064;0.482123;0.478321;0.474466;0.47078;0.467045;0.463417;0.459971;0.456609;0.453494;0.450446;0.447735;0.445225;0.443035;0.441181;0.439614;0.438437;0.437578;0.437084;0.437003;0.437234;0.437901;0.438938;0.440289;0.442129;0.444206;0.446743;0.449465;0.452499;0.455788;0.459237;0.462859;0.466505;0.470366;0.474191;0.478171;0.48199;0.485896;0.489668;0.4932;0.49675;0.500006;0.503139;0.506106;0.508988;0.51165;0.51426;0.516752;0.519072;0.521362;0.523482;0.52551;0.527366;0.529155;0.530751;0.53225;0.533645;0.534861;0.535992;0.536986;0.53788;0.538574;0.539189;0.539611;0.539868;0.540037;0.540069;0.539903;0.539744;0.539439;0.538981;0.538365;0.537679;0.536832;0.53592;0.534791;0.533586;0.532231;0.53078;0.529261;0.527635;0.525979;0.524169;0.522424;0.520398;0.518444;0.516327;0.514219;0.511996;0.509792;0.507708;0.505524;0.503426;0.501225;0.499191;0.497065;0.494971;0.492876;0.490796;0.488622;0.486464;0.484282;0.482104;0.479831;0.477584;0.475392;0.473123;0.470934;0.468616;0.466506;0.464363;0.462281;0.460195;0.458248;0.456329;0.4544;0.452605;0.450867;0.44932;0.447638;0.446193;0.444808;0.443638;0.442564;0.441719;0.441085;0.44088;0.440786;0.441082;0.44183;0.443017;0.444647;0.446832;0.449388;0.452656;0.456248;0.460544;0.465154;0.470392;0.475791;0.481576;0.487267;0.493232;0.499144;0.505049;0.510594;0.516308;0.521881;0.527499;0.533125;0.538747;0.544314;0.549293;0.553568;0.556568;0.558502;0.559245;0.55916;0.558436;0.557826;0.557538;0.557931;0.558984;0.560701;0.562758;0.565074;0.567233;0.569128;0.570509;0.571499;0.571981;0.572119;0.572016;0.571682;0.571228;0.570636;0.569811;0.568807;0.567885;0.5669;0.566065;0.565291;0.564651;0.564103;0.563637;0.562992;0.562177;0.561079;0.559819;0.558533;0.557499;0.556627;0.556052;0.555861;0.555718;0.555748;0.555793;0.555848;0.555839;0.555777;0.555616;0.555454;0.555328;0.555224;0.555251;0.555322;0.555793;0.556293;0.55715;0.558198;0.559606;0.561196;0.56324;0.565656;0.568286;0.571159;0.574294;0.577537;0.580899;0.584396;0.587963;0.591675;0.595183;0.598862;0.602373;0.606073;0.609599;0.613462;0.617233;0.621285;0.625195;0.629367;0.633335;0.637639;0.64179;0.645964;0.649906;0.653823;0.657611;0.661309;0.664911;0.66842;0.672047;0.675565;0.678969;0.682263;0.68554;0.688641;0.691591;0.694242;0.69676;0.698765;0.700642;0.702499;0.703823;0.704844;0.705664;0.706383;0.706735;0.706862;0.706597;0.706122;0.705967
0.0567156;0.0565167;0.0564035;0.0563486;0.056309;0.0563807;0.0564752;0.0566617;0.0569731;0.0573455;0.0579023;0.0586799;0.0596118;0.0609204;0.0625121;0.064389;0.0666558;0.0691862;0.0720038;0.0751357;0.0783676;0.0818719;0.0855668;0.0892159;0.0930588;0.0969039;0.100618;0.104422;0.108048;0.111553;0.114971;0.118089;0.121093;0.123975;0.126525;0.129139;0.13165;0.134085;0.136609;0.138996;0.141486;0.143908;0.146122;0.148307;0.150276;0.151982;0.153463;0.15467;0.155594;0.156244;0.156563;0.156636;0.156398;0.155855;0.154994;0.153815;0.15232;0.150505;0.148577;0.146383;0.144084;0.141811;0.139477;0.137275;0.135119;0.133058;0.131199;0.129418;0.127791;0.126377;0.125032;0.123875;0.12283;0.121892;0.121093;0.120344;0.119688;0.119108;0.118572;0.118083;0.117627;0.117173;0.116762;0.116334;0.115892;0.115452;0.114956;0.114457;0.113889;0.113328;0.112737;0.11213;0.111522;0.110959;0.110392;0.109909;0.109471;0.109117;0.108836;0.108649;0.108573;0.1086;0.108761;0.10901;0.109409;0.109964;0.110655;0.111498;0.112538;0.113691;0.115108;0.116588;0.11836;0.120306;0.12237;0.124667;0.12713;0.129713;0.132547;0.135354;0.138417;0.141561;0.144677;0.147939;0.151163;0.154398;0.157682;0.160719;0.163841;0.166808;0.169618;0.17242;0.175031;0.177663;0.180265;0.182746;0.185303;0.187854;0.190458;0.193341;0.196325;0.199843;0.203747;0.207955;0.212747;0.217851;0.223477;0.229708;0.236186;0.243446;0.25121;0.259302;0.268217;0.277099;0.286614;0.29631;0.305783;0.31562;0.325114;0.334446;0.343756;0.352245;0.360641;0.368441;0.375605;0.382315;0.388195;0.393528;0.398309;0.402286;0.405826;0.408808;0.411342;0.413555;0.415313;0.416879;0.418154;0.419217;0.420119;0.420815;0.421406;0.42181;0.422093;0.422173;0.422132;0.42186;0.421498;0.420961;0.420329;0.419551;0.418721;0.417799;0.416853;0.415859;0.414718;0.413662;0.412417;0.41119;0.409834;0.408406;0.407028;0.405484;0.404024;0.402413;0.400814;0.399206;0.397598;0.39599;0.394482;0.39298;0.391592;0.390254;0.389044;0.387943;0.386856;0.385958;0.385072;0.384336;0.383682;0.383113;0.382573;0.382061;0.381607;0.381156;0.380782;0.380378;0.380038;0.379701;0.379394;0.379061;0.378724;0.378381;0.378028;0.37762;0.377162;0.37662;0.37598;0.375258;0.374465;0.373573;0.372535;0.37144;0.370167;0.368827;0.36731;0.365685;0.36399;0.36212;0.360237;0.358209;0.356137;0.354065;0.351882;0.349744;0.34753;0.345335;0.343174;0.340967;0.338879;0.336727;0.334634;0.332625;0.330549;0.328612;0.326653;0.324743;0.322935;0.321096;0.319397;0.317707;0.316056;0.314528;0.313021;0.311657;0.310366;0.309157;0.308102;0.307169;0.306408;0.305752;0.305237;0.304837;0.304601;0.304519;0.304625;0.304967;0.305622;0.306645;0.308012;0.309887;0.312132;0.314803;0.317943;0.321224;0.324824;0.328405;0.331817;0.3351;0.33802;0.340737;0.343014;0.344852;0.34632;0.34735;0.348158;0.348785;0.349327;0.349842;0.350348;0.350918;0.351453;0.351973;0.352451;0.352812;0.353092;0.353245;0.35333;0.353454;0.353695;0.35411;0.354697;0.355454;0.35633;0.357244;0.35811;0.358851;0.359531;0.360054;0.36047;0.360835;0.361045;0.361245;0.36133;0.36137;0.361367;0.361374;0.36129;0.361152;0.360855;0.360371;0.359726;0.358829;0.357744;0.356505;0.35509;0.353564;0.35197;0.350355;0.348647;0.347013;0.345383;0.343747;0.342286;0.34084;0.339533;0.338344;0.3372;0.336136;0.335094;0.334048;0.33291;0.331749;0.330471;0.329093;0.327724;0.326251;0.32474;0.323144;0.321503;0.319888;0.318278;0.316848;0.315468;0.314375;0.313487;0.312819;0.312483;0.31245;0.312744;0.313421;0.314501;0.315948;0.317776;0.319966;0.322649;0.325731;0.329583;0.334017;0.339125;0.345232;0.351998;0.35996;0.368782;0.378953;0.390244;0.402419;0.41599;0.429818;0.444751;0.459871;0.475436;0.491184;0.50613;0.521001;0.534571;0.547695;0.559574;0.570492;0.580726;0.58953;0.59764;0.604574;0.610505;0.615182;0.618778;0.621421;0.622649;0.622909;0.622201;0.620463;0.617956;0.61484;0.611244;0.607358;0.603174;0.599038;0.594612;0.590191;0.585815;0.581351;0.577008;0.572612;0.568412;0.5641;0.559915;0.555734;0.551508;0.547351;0.54315;0.539135;0.534919;0.531009;0.527002;0.523077;0.519373;0.515741;0.512343;0.509039;0.506119;0.503394;0.500982;0.498963;0.497222;0.495901;0.494972;0.494449;0.494269;0.494513;0.495229;0.496307;0.49774;0.499676;0.501995;0.504681;0.50758;0.510913;0.514458;0.518078;0.522039;0.52601;0.530187;0.534282;0.538563;0.54265;0.546764;0.550799;0.554594;0.55834;0.561773;0.565112;0.568092;0.571006;0.573771;0.576325;0.578766;0.581154;0.583423;0.585502;0.587489;0.589287;0.591028;0.592641;0.5942;0.595576;0.596827;0.598025;0.598954;0.599806;0.600577;0.601134;0.601635;0.601968;0.602138;0.602127;0.602013;0.601798;0.601476;0.601052;0.600441;0.599743;0.598879;0.597882;0.596751;0.595511;0.594133;0.592598;0.591056;0.589487;0.587825;0.586052;0.584276;0.582345;0.580344;0.57809;0.575946;0.573675;0.571377;0.569195;0.566962;0.564885;0.56266;0.560536;0.558296;0.556242;0.554083;0.551895;0.549596;0.547387;0.545098;0.542758;0.540457;0.538081;0.535697;0.53324;0.530833;0.528412;0.526119;0.523723;0.521416;0.519221;0.517104;0.515013;0.512979;0.510981;0.509115;0.507352;0.505596;0.5041;0.502581;0.501278;0.500176;0.499276;0.498597;0.498304;0.498258;0.498693;0.499542;0.50089;0.502785;0.505141;0.508116;0.511788;0.515795;0.520628;0.52581;0.531631;0.537456;0.54389;0.550184;0.556814;0.563228;0.569706;0.575764;0.582095;0.588213;0.594315;0.600278;0.606348;0.612166;0.617492;0.622046;0.625339;0.627579;0.628582;0.628757;0.628495;0.628295;0.628661;0.629449;0.630978;0.633294;0.635853;0.638588;0.64096;0.642803;0.64395;0.644454;0.644274;0.643801;0.643348;0.642693;0.642009;0.641146;0.640343;0.639435;0.638576;0.637684;0.636997;0.636615;0.636432;0.636239;0.636153;0.635902;0.635176;0.634103;0.632649;0.630978;0.629564;0.628397;0.627637;0.627196;0.62712;0.627028;0.627037;0.62705;0.627116;0.626955;0.626873;0.62671;0.626674;0.626526;0.626498;0.626706;0.627046;0.627554;0.628532;0.629612;0.631065;0.632786;0.634794;0.637057;0.639811;0.642718;0.64597;0.649184;0.652613;0.656153;0.659628;0.663376;0.667112;0.670825;0.674432;0.678217;0.68199;0.685849;0.689601;0.69364;0.697631;0.70187;0.706033;0.710483;0.714705;0.718901;0.722956;0.727116;0.730915;0.734824;0.73845;0.742181;0.745822;0.749313;0.752805;0.756342;0.759564;0.762402;0.76547;0.768215;0.770856;0.772869;0.774789;0.77633;0.777703;0.778905;0.779632;0.780297;0.780656;0.780671;0.780451;0.780142;0.779583
0.054238;0.0540941;0.0539749;0.0539233;0.053915;0.0540044;0.0540777;0.0543067;0.054652;0.0551074;0.0557885;0.0566757;0.0577986;0.0592883;0.0611442;0.0633208;0.0659213;0.0688746;0.0720806;0.0757208;0.0794781;0.0834778;0.0877678;0.0919594;0.0964293;0.100864;0.105116;0.109522;0.113661;0.117681;0.121542;0.125112;0.128581;0.131845;0.134802;0.137822;0.140719;0.143502;0.146386;0.14913;0.15196;0.15474;0.157257;0.159763;0.162026;0.164012;0.165737;0.167125;0.168216;0.169009;0.169443;0.169556;0.16934;0.168766;0.16782;0.166556;0.164919;0.162947;0.160824;0.158416;0.155913;0.153423;0.150851;0.148445;0.146094;0.14383;0.141801;0.139854;0.138081;0.136531;0.135064;0.133815;0.132678;0.131685;0.130809;0.130025;0.129317;0.128705;0.128112;0.12761;0.127111;0.126653;0.126217;0.125746;0.125282;0.124808;0.124281;0.123742;0.123157;0.122529;0.12191;0.121259;0.12062;0.120004;0.119415;0.118892;0.118455;0.118081;0.117822;0.117664;0.117622;0.117698;0.117906;0.118243;0.118753;0.119419;0.120228;0.121228;0.122413;0.123786;0.125419;0.12716;0.12919;0.131424;0.133802;0.136467;0.13927;0.142241;0.145455;0.14865;0.152111;0.155649;0.159161;0.162813;0.166434;0.170089;0.173811;0.177321;0.180915;0.184381;0.187631;0.190871;0.193868;0.196862;0.199802;0.202573;0.205442;0.208292;0.211225;0.214484;0.217888;0.221857;0.226234;0.230953;0.236298;0.242021;0.248406;0.255446;0.262771;0.270978;0.279641;0.288658;0.298531;0.308378;0.318831;0.329504;0.33983;0.35056;0.360829;0.370977;0.381023;0.39023;0.399299;0.407638;0.415301;0.42248;0.428749;0.434428;0.439475;0.443651;0.447407;0.450504;0.453188;0.455467;0.45732;0.458954;0.460279;0.4614;0.462309;0.463049;0.463666;0.464092;0.464337;0.464408;0.464344;0.464068;0.463618;0.463027;0.46226;0.461369;0.460402;0.459294;0.458166;0.45696;0.455706;0.454405;0.453027;0.451646;0.450173;0.448684;0.447256;0.44569;0.444147;0.442575;0.440958;0.439414;0.437856;0.43634;0.434844;0.433392;0.432028;0.43069;0.429471;0.428297;0.427244;0.426269;0.425395;0.424572;0.423851;0.423182;0.422585;0.422039;0.421506;0.421028;0.420584;0.420201;0.419823;0.419436;0.419096;0.418751;0.418394;0.418039;0.417639;0.417171;0.416671;0.416084;0.415392;0.414594;0.413742;0.412754;0.411648;0.410457;0.4091;0.407637;0.406046;0.40433;0.4025;0.400517;0.39851;0.39634;0.394128;0.391884;0.389544;0.387265;0.384902;0.382557;0.380278;0.377909;0.375667;0.37338;0.371131;0.368997;0.366786;0.364709;0.362622;0.360575;0.358623;0.356675;0.354905;0.353081;0.351339;0.349732;0.348131;0.346679;0.345295;0.344032;0.342917;0.341918;0.341134;0.340487;0.339973;0.339582;0.339346;0.339272;0.339402;0.339782;0.340497;0.341666;0.343191;0.345202;0.347697;0.350574;0.354009;0.357592;0.361505;0.365402;0.369152;0.372833;0.376071;0.379135;0.381672;0.383765;0.385456;0.386686;0.387644;0.388391;0.389046;0.389672;0.39028;0.390889;0.391493;0.392052;0.392546;0.39287;0.393084;0.393169;0.393165;0.393237;0.39345;0.393866;0.394495;0.395333;0.396307;0.397301;0.398316;0.399201;0.399976;0.400603;0.401102;0.401525;0.40178;0.401969;0.402056;0.402071;0.402071;0.402043;0.401946;0.401778;0.401459;0.400945;0.40028;0.399273;0.398132;0.396813;0.395302;0.393677;0.391943;0.390203;0.388354;0.386567;0.384786;0.383041;0.381439;0.37989;0.378511;0.37715;0.375921;0.374786;0.373642;0.372561;0.371374;0.370127;0.368808;0.367375;0.365942;0.364386;0.362874;0.361234;0.359604;0.357928;0.356244;0.35477;0.35333;0.352165;0.351213;0.350556;0.350235;0.350255;0.3506;0.351331;0.352453;0.353966;0.355978;0.358431;0.361531;0.365122;0.369533;0.37456;0.380228;0.386951;0.39433;0.403033;0.412709;0.423867;0.436228;0.449475;0.464219;0.479207;0.495378;0.511638;0.528279;0.545076;0.560892;0.576484;0.590626;0.60431;0.616574;0.627796;0.638306;0.647265;0.655544;0.662452;0.668386;0.673004;0.676491;0.67886;0.680118;0.680305;0.679477;0.677627;0.675089;0.671983;0.668244;0.664501;0.660175;0.655927;0.651338;0.646897;0.642398;0.637786;0.633299;0.628809;0.624425;0.619887;0.615526;0.611174;0.606759;0.602396;0.598046;0.593894;0.589547;0.585391;0.581252;0.577179;0.573253;0.569423;0.565919;0.562492;0.559402;0.556547;0.554066;0.551929;0.550072;0.548742;0.547735;0.547191;0.546968;0.547224;0.547864;0.54892;0.550427;0.552492;0.554769;0.557582;0.560689;0.564081;0.567618;0.571493;0.575584;0.579593;0.583917;0.588149;0.59254;0.596734;0.601081;0.605102;0.608897;0.612753;0.616255;0.619607;0.622713;0.625735;0.628444;0.631112;0.633656;0.636026;0.63833;0.640387;0.642422;0.644345;0.646134;0.647782;0.649315;0.65065;0.651878;0.653027;0.654069;0.654938;0.655653;0.656266;0.656652;0.656942;0.65706;0.657082;0.65699;0.656682;0.656358;0.655967;0.655297;0.654572;0.653687;0.652826;0.651613;0.650333;0.648926;0.647406;0.645852;0.644149;0.642483;0.64067;0.638872;0.636914;0.634872;0.632618;0.630298;0.627943;0.62558;0.62327;0.620926;0.618743;0.616434;0.614272;0.61208;0.609965;0.607684;0.605445;0.603147;0.600842;0.598477;0.596061;0.593617;0.591123;0.588717;0.586183;0.583739;0.58114;0.578727;0.576444;0.574092;0.571816;0.569567;0.567427;0.56539;0.563418;0.561422;0.559609;0.557885;0.556329;0.554854;0.55353;0.552407;0.551636;0.551053;0.550836;0.550956;0.551473;0.552454;0.55402;0.556083;0.558806;0.561978;0.565969;0.570389;0.575596;0.581079;0.587065;0.593292;0.599968;0.606584;0.613525;0.620106;0.626809;0.63315;0.639642;0.645953;0.652215;0.658364;0.66439;0.670291;0.675695;0.680259;0.683752;0.68606;0.687227;0.687668;0.68771;0.687829;0.688329;0.68961;0.69146;0.694038;0.696863;0.699796;0.702209;0.704015;0.705057;0.705333;0.704972;0.704426;0.703721;0.702937;0.702112;0.701323;0.700688;0.699735;0.699;0.698158;0.69773;0.697527;0.697559;0.697602;0.697684;0.697604;0.697108;0.695882;0.694353;0.692593;0.690997;0.689626;0.6888;0.688369;0.688269;0.68823;0.688297;0.688434;0.688453;0.688573;0.688367;0.687999;0.687962;0.687905;0.687964;0.688256;0.688646;0.68934;0.69032;0.691382;0.692743;0.694487;0.696624;0.699062;0.701735;0.704618;0.707756;0.711111;0.714467;0.718053;0.72172;0.725421;0.729033;0.732825;0.736524;0.740332;0.744023;0.74797;0.751679;0.755636;0.759739;0.763938;0.768082;0.772355;0.776492;0.780679;0.78479;0.788887;0.792702;0.796559;0.800142;0.803948;0.807407;0.81116;0.814682;0.818104;0.821293;0.824512;0.827343;0.830062;0.832498;0.834686;0.836902;0.838373;0.839546;0.840578;0.841362;0.841935;0.842323;0.84237;0.84219;0.841776;0.841374
0.0487734;0.0485991;0.0485026;0.0484662;0.0484444;0.0485058;0.0485859;0.0488034;0.0491273;0.0495171;0.0501298;0.0509722;0.0520022;0.0534021;0.0551106;0.0571372;0.0595471;0.0622699;0.0652557;0.06862;0.0720976;0.0757728;0.0797127;0.0835876;0.087681;0.0917742;0.0956822;0.0997032;0.103511;0.107199;0.11079;0.114091;0.117307;0.120322;0.123061;0.125849;0.128547;0.131141;0.133819;0.13637;0.138982;0.141557;0.143884;0.146209;0.148302;0.150126;0.15172;0.15299;0.154008;0.154723;0.155113;0.155186;0.154978;0.154445;0.153572;0.152423;0.150933;0.149137;0.147197;0.145019;0.142727;0.140469;0.138111;0.135925;0.133763;0.131686;0.129806;0.128008;0.126375;0.124935;0.123589;0.122427;0.121368;0.120438;0.119636;0.118899;0.118241;0.117672;0.11713;0.116657;0.116197;0.115767;0.115359;0.114918;0.114498;0.114043;0.113564;0.113043;0.112491;0.1119;0.111328;0.110699;0.110103;0.109525;0.10896;0.108458;0.108036;0.107674;0.107408;0.107247;0.107201;0.107247;0.107429;0.107726;0.108189;0.108784;0.109518;0.110433;0.111521;0.112765;0.114274;0.115871;0.117741;0.119792;0.121994;0.124446;0.12704;0.129786;0.132773;0.135743;0.138953;0.142218;0.145466;0.148891;0.152225;0.155595;0.159015;0.162257;0.165566;0.168772;0.171776;0.174797;0.177594;0.180381;0.183124;0.185696;0.188346;0.190974;0.193671;0.196661;0.199767;0.203411;0.207437;0.211798;0.216832;0.222187;0.228149;0.234656;0.241523;0.249202;0.257339;0.265832;0.275128;0.284405;0.294345;0.304452;0.314269;0.324545;0.334347;0.344066;0.353623;0.362443;0.371175;0.379159;0.386498;0.393407;0.399466;0.404921;0.409804;0.413807;0.417458;0.420426;0.42299;0.425205;0.426969;0.428565;0.429799;0.430932;0.431804;0.432531;0.433073;0.433506;0.433762;0.433828;0.433772;0.433492;0.433086;0.432536;0.431824;0.430985;0.430086;0.429075;0.428018;0.426912;0.425697;0.424491;0.423167;0.421889;0.420489;0.419013;0.417624;0.416132;0.414668;0.413109;0.411532;0.410023;0.408449;0.407017;0.405517;0.404122;0.402788;0.401479;0.40028;0.39918;0.398203;0.397291;0.396419;0.395655;0.394943;0.394333;0.393838;0.393359;0.392904;0.392464;0.392057;0.391689;0.391333;0.390982;0.390683;0.3904;0.390054;0.389725;0.389348;0.3889;0.388436;0.387862;0.387227;0.386494;0.385655;0.384728;0.383683;0.382518;0.38122;0.379839;0.378284;0.376658;0.374913;0.37301;0.371086;0.368981;0.366873;0.364724;0.362458;0.360295;0.358006;0.355742;0.35359;0.35131;0.349151;0.346972;0.3448;0.342721;0.340597;0.338594;0.336608;0.334652;0.332769;0.33091;0.329165;0.327388;0.32574;0.324158;0.322615;0.321235;0.319857;0.318609;0.317529;0.316523;0.315735;0.315051;0.314519;0.314095;0.313843;0.313706;0.313804;0.314172;0.314763;0.315809;0.31718;0.319008;0.321284;0.323925;0.32706;0.330344;0.333897;0.337427;0.340853;0.34414;0.347018;0.34968;0.351836;0.353582;0.354952;0.355905;0.356615;0.357173;0.357656;0.358135;0.358627;0.35917;0.359708;0.360253;0.360749;0.361163;0.361506;0.361775;0.362013;0.36231;0.362698;0.363281;0.363983;0.36486;0.365827;0.366774;0.367692;0.36847;0.369121;0.369633;0.370072;0.370411;0.370659;0.370881;0.371005;0.371133;0.371246;0.371296;0.37135;0.371286;0.371063;0.370649;0.370009;0.369111;0.368053;0.366798;0.365378;0.363851;0.362201;0.360553;0.358789;0.357124;0.355419;0.353756;0.352239;0.35073;0.349397;0.348101;0.346914;0.345845;0.344752;0.343732;0.342601;0.341437;0.340223;0.338876;0.33751;0.336005;0.334547;0.332929;0.331389;0.329767;0.328126;0.326723;0.32536;0.324241;0.323362;0.322733;0.322381;0.32242;0.322756;0.32342;0.324464;0.325882;0.327759;0.330045;0.332909;0.336226;0.340317;0.345032;0.350382;0.356752;0.363758;0.372054;0.38119;0.391662;0.403382;0.415925;0.429925;0.444132;0.459556;0.475006;0.490883;0.506921;0.52205;0.537061;0.550689;0.56389;0.575746;0.58665;0.596777;0.605547;0.613562;0.620325;0.626141;0.630756;0.634254;0.636637;0.637826;0.637952;0.637143;0.635266;0.63275;0.629642;0.625966;0.62216;0.617903;0.61369;0.609239;0.604866;0.600436;0.595911;0.591628;0.587192;0.58293;0.578523;0.574357;0.570085;0.565787;0.561613;0.557368;0.553297;0.549069;0.545133;0.541155;0.537192;0.533459;0.529739;0.526347;0.52308;0.520122;0.517399;0.514998;0.51297;0.511244;0.509942;0.509034;0.508558;0.508441;0.50871;0.509367;0.510458;0.512014;0.513952;0.516252;0.518969;0.521929;0.525244;0.528828;0.53256;0.536492;0.540468;0.544683;0.548754;0.553055;0.557152;0.561328;0.5653;0.569162;0.572961;0.576307;0.57969;0.5828;0.585777;0.588426;0.591121;0.593519;0.595832;0.598196;0.60034;0.602374;0.604238;0.606098;0.607774;0.609284;0.610649;0.611922;0.613075;0.61402;0.614888;0.61559;0.61617;0.616628;0.616872;0.617013;0.617044;0.616897;0.616638;0.616274;0.615788;0.615184;0.614384;0.613522;0.612568;0.611409;0.610138;0.608732;0.607271;0.605727;0.60404;0.602379;0.60052;0.598699;0.596652;0.594695;0.592481;0.590319;0.587996;0.585687;0.583465;0.581199;0.579093;0.576834;0.574638;0.572399;0.570305;0.568034;0.565867;0.563539;0.56129;0.559024;0.556688;0.554347;0.551944;0.549551;0.547095;0.54471;0.542287;0.539987;0.537588;0.535404;0.533179;0.531076;0.528966;0.526936;0.524991;0.523088;0.521342;0.519635;0.518082;0.516595;0.51538;0.514296;0.513424;0.512786;0.512462;0.512592;0.513046;0.513959;0.515385;0.517324;0.519831;0.522844;0.526556;0.530712;0.535578;0.540803;0.546573;0.552509;0.558873;0.56521;0.57175;0.57804;0.584491;0.590564;0.596747;0.602634;0.608656;0.614572;0.620511;0.626252;0.6314;0.635752;0.638971;0.641029;0.641925;0.642034;0.641654;0.641339;0.641513;0.642276;0.64374;0.645877;0.648272;0.650901;0.653246;0.655099;0.656285;0.65687;0.657002;0.656835;0.656549;0.656045;0.655481;0.654751;0.653924;0.652956;0.652163;0.651421;0.650707;0.650202;0.649873;0.649587;0.649338;0.648901;0.64819;0.647113;0.645725;0.64426;0.642899;0.641936;0.641201;0.640753;0.640737;0.640739;0.640738;0.640836;0.640836;0.640735;0.640627;0.640477;0.640352;0.640227;0.640262;0.64053;0.640939;0.64158;0.64236;0.643542;0.645018;0.646764;0.648799;0.651219;0.653966;0.657019;0.659995;0.66336;0.666831;0.670437;0.673985;0.677569;0.681369;0.685148;0.688793;0.692681;0.696387;0.700285;0.704039;0.708275;0.712353;0.716536;0.720743;0.72506;0.729253;0.733545;0.73754;0.741555;0.745486;0.749321;0.753028;0.756775;0.760263;0.763898;0.767433;0.770817;0.774145;0.777192;0.780065;0.783073;0.785514;0.787726;0.789772;0.791211;0.792789;0.793666;0.794641;0.795216;0.795454;0.795558;0.795295;0.79491;0.794528
0.0497307;0.0495645;0.0494652;0.0493908;0.0493728;0.0493893;0.0494779;0.0496486;0.0499176;0.0503038;0.0508621;0.0516843;0.05265;0.0540022;0.0556518;0.0576101;0.0599688;0.062625;0.0655783;0.068893;0.0723299;0.0759906;0.0799011;0.0837738;0.08785;0.0919421;0.095834;0.0998955;0.103708;0.107387;0.110994;0.114306;0.117532;0.120552;0.12328;0.126076;0.128737;0.131331;0.133982;0.136543;0.139186;0.14179;0.144162;0.146527;0.148658;0.150535;0.152204;0.153526;0.154574;0.155348;0.155769;0.155911;0.155711;0.155201;0.154341;0.153193;0.151678;0.149856;0.147868;0.14565;0.143311;0.140974;0.138566;0.136294;0.134081;0.131934;0.130029;0.128188;0.126515;0.125054;0.123689;0.122508;0.121458;0.120509;0.119717;0.118965;0.118318;0.117747;0.117197;0.116723;0.116253;0.115808;0.115382;0.114939;0.114496;0.114043;0.113532;0.113027;0.112466;0.111886;0.111308;0.110694;0.110089;0.109519;0.10896;0.108481;0.108051;0.107699;0.10744;0.107289;0.107226;0.107279;0.107459;0.107755;0.108191;0.108799;0.10952;0.110441;0.111525;0.112753;0.114251;0.115858;0.117703;0.119763;0.121947;0.124397;0.126982;0.129714;0.132689;0.135653;0.138851;0.142124;0.145387;0.148811;0.152171;0.155571;0.159049;0.162336;0.165724;0.168952;0.17203;0.175042;0.177859;0.180615;0.183339;0.185884;0.188544;0.191179;0.193908;0.196973;0.200142;0.203803;0.207819;0.212182;0.217174;0.222501;0.228418;0.23491;0.241714;0.249343;0.257419;0.265854;0.275076;0.284284;0.294156;0.30419;0.313971;0.324144;0.333903;0.34355;0.35302;0.361815;0.370453;0.378423;0.385703;0.392591;0.398583;0.404037;0.408862;0.412856;0.416469;0.419433;0.421969;0.424136;0.425908;0.427443;0.428689;0.429749;0.430618;0.431326;0.431846;0.432281;0.432494;0.432601;0.43252;0.432292;0.431866;0.431323;0.430575;0.429709;0.42876;0.427668;0.426584;0.425392;0.424179;0.422923;0.421532;0.420261;0.418812;0.417406;0.415979;0.414503;0.413101;0.411623;0.410123;0.408696;0.407206;0.405816;0.40442;0.40308;0.401799;0.400607;0.399498;0.39844;0.397479;0.396623;0.395791;0.395081;0.39441;0.393847;0.393383;0.392904;0.392481;0.392036;0.391659;0.391317;0.390953;0.390624;0.390337;0.390043;0.389737;0.389382;0.388988;0.388588;0.388119;0.387567;0.386907;0.386187;0.385376;0.384414;0.383388;0.38224;0.380949;0.379601;0.378061;0.376424;0.374713;0.372804;0.370881;0.368796;0.366677;0.364547;0.362313;0.360143;0.357878;0.35564;0.353489;0.351243;0.349105;0.346912;0.344774;0.342697;0.340603;0.338625;0.336632;0.334683;0.33284;0.330956;0.329196;0.327453;0.32578;0.324248;0.322721;0.321293;0.319948;0.318701;0.317618;0.316614;0.315787;0.315115;0.314546;0.314132;0.313833;0.313702;0.313758;0.31406;0.314693;0.315692;0.317051;0.318902;0.321207;0.323897;0.327099;0.330481;0.334131;0.337831;0.341365;0.344836;0.347879;0.35069;0.353037;0.354938;0.356461;0.357527;0.358347;0.35896;0.359461;0.359933;0.360446;0.360988;0.361497;0.36203;0.362534;0.362914;0.363246;0.36344;0.363594;0.363786;0.364095;0.364598;0.365269;0.36612;0.36709;0.368082;0.369057;0.369875;0.370601;0.371209;0.371661;0.372052;0.372354;0.372569;0.372719;0.372823;0.372879;0.372925;0.372924;0.372809;0.372535;0.372093;0.371426;0.370502;0.369419;0.368082;0.366647;0.365107;0.363407;0.361746;0.359979;0.358281;0.356602;0.354945;0.353413;0.35193;0.350592;0.34935;0.34822;0.34717;0.346132;0.345128;0.344021;0.342884;0.341654;0.340336;0.338988;0.337533;0.336101;0.334582;0.333032;0.33147;0.329873;0.328419;0.327033;0.325896;0.324975;0.324315;0.32398;0.323944;0.324256;0.324925;0.325904;0.3273;0.329191;0.331475;0.334432;0.337821;0.341942;0.346611;0.351795;0.35793;0.364727;0.372806;0.381765;0.392107;0.403702;0.416083;0.429913;0.443953;0.459207;0.474554;0.490318;0.506293;0.521295;0.536186;0.549755;0.56278;0.574472;0.58536;0.595435;0.604165;0.612229;0.618993;0.62477;0.629378;0.632856;0.635247;0.636387;0.636577;0.635794;0.633964;0.631421;0.628324;0.624697;0.620775;0.616536;0.612362;0.607924;0.603483;0.599109;0.59463;0.590304;0.585889;0.581637;0.577264;0.573006;0.56876;0.564517;0.560316;0.556083;0.55202;0.547873;0.543913;0.53993;0.536061;0.532356;0.528725;0.525338;0.522078;0.51918;0.516447;0.514094;0.512085;0.510409;0.509164;0.508292;0.50786;0.507718;0.508014;0.508697;0.509829;0.511318;0.513302;0.515596;0.518315;0.521244;0.524609;0.528176;0.531847;0.535777;0.539736;0.543927;0.547983;0.552249;0.556342;0.560528;0.564508;0.568293;0.572095;0.575498;0.578885;0.581979;0.585042;0.587804;0.590494;0.593016;0.595359;0.597779;0.599937;0.60208;0.604027;0.605835;0.607552;0.609159;0.610607;0.611842;0.613041;0.614131;0.614983;0.615726;0.616366;0.61674;0.617011;0.617186;0.617259;0.61713;0.616867;0.61646;0.616045;0.615434;0.614658;0.613768;0.612914;0.611707;0.610354;0.609013;0.607503;0.605882;0.604166;0.602453;0.600665;0.598865;0.596816;0.594799;0.592578;0.59032;0.587943;0.58557;0.583289;0.580978;0.578707;0.576449;0.574262;0.572057;0.569932;0.567665;0.565418;0.563122;0.560849;0.558556;0.556205;0.553784;0.551419;0.549042;0.546609;0.5442;0.541769;0.539498;0.537127;0.534934;0.53272;0.530621;0.528513;0.526538;0.52459;0.522681;0.520999;0.519294;0.517729;0.516269;0.514956;0.513846;0.512936;0.512313;0.511995;0.512051;0.512401;0.513297;0.514638;0.516436;0.518813;0.521852;0.525391;0.529584;0.534415;0.539497;0.545243;0.551147;0.557561;0.563892;0.57049;0.576859;0.583365;0.589537;0.595817;0.60186;0.608144;0.614264;0.620363;0.626211;0.631552;0.63615;0.639495;0.641814;0.642804;0.642843;0.642705;0.642409;0.642528;0.6435;0.644804;0.647053;0.649595;0.652313;0.654631;0.656591;0.657727;0.658358;0.658319;0.65797;0.657678;0.657072;0.65644;0.65563;0.654803;0.653792;0.652774;0.651953;0.651217;0.650713;0.650353;0.650122;0.649985;0.649598;0.649023;0.647901;0.646518;0.644993;0.643571;0.642512;0.641796;0.641345;0.641208;0.641311;0.641331;0.641366;0.641431;0.641436;0.641411;0.641272;0.641136;0.641068;0.641038;0.641188;0.641635;0.642184;0.643034;0.644153;0.645535;0.647397;0.649498;0.651807;0.654542;0.657452;0.660522;0.663872;0.667275;0.670916;0.674526;0.67817;0.681812;0.685605;0.689193;0.692925;0.696585;0.700532;0.70425;0.708198;0.712275;0.716545;0.720729;0.724938;0.728997;0.733172;0.737234;0.741226;0.745098;0.748859;0.75254;0.756181;0.759682;0.763321;0.766767;0.769955;0.773276;0.776478;0.779311;0.781895;0.784437;0.786553;0.788548;0.790117;0.791404;0.79248;0.793368;0.793862;0.794203;0.794324;0.794257;0.793772;0.793419
0.0486839;0.0485081;0.0484192;0.0483356;0.048331;0.0483534;0.0484115;0.0485956;0.0488627;0.0492673;0.0498213;0.0506347;0.0516008;0.052969;0.0546338;0.0565966;0.0589629;0.0616273;0.0645951;0.067937;0.0714001;0.0750825;0.0790224;0.0829219;0.0870429;0.0911627;0.095094;0.0991991;0.10305;0.106751;0.110376;0.113714;0.116934;0.119968;0.122711;0.12553;0.128207;0.130817;0.133509;0.136089;0.138759;0.141364;0.143763;0.146137;0.148295;0.150193;0.151872;0.153214;0.154275;0.155068;0.155503;0.155655;0.155466;0.154959;0.154104;0.152942;0.151419;0.149567;0.147576;0.145319;0.142969;0.140612;0.138197;0.135921;0.133691;0.131548;0.129615;0.127769;0.1261;0.124634;0.123248;0.122061;0.121001;0.120049;0.119242;0.118503;0.117841;0.117265;0.116718;0.116241;0.115757;0.115306;0.114876;0.114433;0.113984;0.11353;0.113014;0.112499;0.111952;0.111367;0.110773;0.110149;0.10955;0.108973;0.1084;0.107924;0.107483;0.107127;0.106866;0.106707;0.106648;0.106689;0.106857;0.107156;0.107591;0.108194;0.108922;0.109845;0.110929;0.112159;0.113667;0.115253;0.117133;0.119197;0.121397;0.123851;0.126451;0.129184;0.132187;0.135175;0.138396;0.141679;0.144972;0.148438;0.151833;0.155263;0.158775;0.162091;0.165505;0.168753;0.171842;0.174871;0.177676;0.180442;0.183168;0.185706;0.188367;0.191006;0.19374;0.196778;0.199924;0.20357;0.207588;0.21194;0.216913;0.222247;0.228173;0.234679;0.241482;0.249138;0.257236;0.265714;0.274977;0.284208;0.294099;0.304172;0.313987;0.324195;0.334001;0.343669;0.3532;0.361998;0.370687;0.378678;0.386005;0.392882;0.398906;0.404349;0.409194;0.413194;0.416816;0.419756;0.42229;0.424475;0.426214;0.427759;0.428997;0.430047;0.430936;0.431621;0.432177;0.432582;0.432813;0.43289;0.4328;0.432568;0.432138;0.431578;0.430873;0.430075;0.429171;0.428196;0.42718;0.426094;0.424915;0.423707;0.422351;0.421038;0.419601;0.418116;0.416639;0.415032;0.413466;0.41183;0.410184;0.40859;0.406938;0.405434;0.40393;0.402548;0.401202;0.399954;0.398798;0.397719;0.396808;0.395942;0.395156;0.394492;0.393837;0.393337;0.392901;0.392503;0.392117;0.391729;0.391397;0.391065;0.390723;0.390429;0.390126;0.389839;0.389545;0.389176;0.388814;0.388394;0.387893;0.387393;0.386715;0.385976;0.385189;0.384216;0.383211;0.382093;0.380763;0.37941;0.377875;0.376249;0.374556;0.372638;0.370704;0.368651;0.366531;0.364417;0.36217;0.359993;0.357739;0.355499;0.353351;0.351123;0.348971;0.346779;0.344651;0.342587;0.340496;0.338522;0.336519;0.334567;0.332736;0.330863;0.32911;0.32737;0.325712;0.324174;0.322633;0.32122;0.31987;0.318644;0.317539;0.316577;0.315772;0.315096;0.314555;0.314117;0.313805;0.313674;0.313706;0.314018;0.314629;0.315619;0.31698;0.318842;0.32112;0.323816;0.327001;0.330352;0.334023;0.337686;0.341218;0.344691;0.347738;0.350544;0.352909;0.354837;0.356343;0.357425;0.358276;0.358855;0.359397;0.359893;0.360384;0.360938;0.361449;0.361971;0.362465;0.362818;0.363102;0.363303;0.363426;0.363617;0.363939;0.364421;0.36508;0.36596;0.366919;0.367913;0.368895;0.369706;0.370469;0.371053;0.37154;0.371946;0.372222;0.372433;0.372542;0.372657;0.372706;0.372726;0.37274;0.372643;0.372367;0.371943;0.371296;0.370384;0.369315;0.368011;0.366559;0.365032;0.363356;0.361695;0.359944;0.358261;0.356555;0.354906;0.353391;0.351918;0.350586;0.349335;0.348209;0.347175;0.346148;0.345129;0.344016;0.342872;0.341654;0.340309;0.338997;0.337543;0.336149;0.334624;0.333059;0.331479;0.329861;0.328408;0.327046;0.325884;0.324942;0.324311;0.323966;0.323931;0.324205;0.324843;0.325849;0.327281;0.329238;0.331593;0.334516;0.337801;0.341818;0.346403;0.351551;0.357731;0.364566;0.372681;0.381715;0.39211;0.403733;0.416129;0.430006;0.444141;0.459477;0.474883;0.490692;0.506623;0.521602;0.536504;0.550029;0.563031;0.574721;0.585609;0.595685;0.604307;0.612254;0.618883;0.624622;0.629174;0.632614;0.634925;0.636072;0.636183;0.635339;0.633486;0.630946;0.627815;0.624125;0.620264;0.616028;0.611818;0.607382;0.602998;0.598567;0.594096;0.58985;0.585393;0.581158;0.576806;0.572558;0.568317;0.564087;0.55996;0.555692;0.551639;0.547478;0.543571;0.53963;0.535749;0.532054;0.528412;0.525048;0.521767;0.518871;0.516173;0.513855;0.511835;0.510184;0.50893;0.508071;0.507649;0.507498;0.50782;0.50851;0.509657;0.511126;0.513106;0.515431;0.518184;0.521114;0.524505;0.528052;0.531756;0.535665;0.539652;0.543834;0.547919;0.552163;0.556259;0.560392;0.564408;0.568239;0.571974;0.575386;0.57877;0.581858;0.584932;0.587646;0.590338;0.592875;0.595177;0.597581;0.59971;0.601838;0.603761;0.605579;0.607306;0.608813;0.610213;0.611529;0.612681;0.61369;0.614599;0.615273;0.615894;0.616295;0.616486;0.616666;0.616678;0.616592;0.616313;0.615876;0.615486;0.614867;0.614119;0.613171;0.612293;0.611112;0.609822;0.608439;0.606903;0.605331;0.603566;0.601821;0.600008;0.598135;0.596095;0.594007;0.591774;0.589572;0.58726;0.584869;0.582573;0.580233;0.578058;0.57581;0.573609;0.571354;0.569181;0.566978;0.56476;0.562458;0.560144;0.557831;0.555506;0.553175;0.550747;0.548382;0.54593;0.543529;0.541022;0.538664;0.536364;0.534185;0.531888;0.529789;0.527714;0.525673;0.523685;0.521821;0.520084;0.51837;0.516797;0.515346;0.514103;0.513027;0.512188;0.511546;0.511232;0.511301;0.51172;0.51263;0.514002;0.515904;0.518378;0.52137;0.525086;0.529183;0.534027;0.539185;0.544934;0.550926;0.557325;0.563688;0.570297;0.576589;0.583192;0.58945;0.595785;0.601802;0.607983;0.614064;0.620232;0.626107;0.631423;0.635987;0.639339;0.641615;0.642493;0.642633;0.642402;0.642295;0.642541;0.643533;0.645072;0.64734;0.64986;0.652644;0.655067;0.656907;0.658038;0.658498;0.658489;0.658076;0.657572;0.657031;0.65632;0.655545;0.654729;0.653854;0.653004;0.652101;0.651552;0.651019;0.650663;0.65048;0.6504;0.650053;0.649425;0.648267;0.646879;0.645256;0.643845;0.642738;0.642003;0.641634;0.641541;0.641684;0.641685;0.641678;0.641786;0.641722;0.641612;0.641541;0.641453;0.641382;0.641421;0.641629;0.641984;0.642599;0.64341;0.644644;0.646078;0.647976;0.649951;0.652322;0.655026;0.658145;0.66121;0.664479;0.667926;0.671484;0.675118;0.678733;0.682381;0.686193;0.689938;0.693587;0.697406;0.701278;0.705133;0.709142;0.713156;0.717421;0.721431;0.725705;0.729925;0.734203;0.738267;0.742185;0.745865;0.74973;0.753403;0.757021;0.760599;0.764157;0.767597;0.770939;0.774059;0.777245;0.780061;0.78295;0.785218;0.787419;0.789356;0.790986;0.792307;0.793311;0.794261;0.794814;0.795138;0.795192;0.794966;0.794643;0.794147
0.0435725;0.0433841;0.0433237;0.0432743;0.0432941;0.0432986;0.0434292;0.0436144;0.0438924;0.0442994;0.0448427;0.0456565;0.0466186;0.0479078;0.0495394;0.051444;0.0537269;0.0563025;0.0591432;0.0623458;0.0656146;0.0691193;0.0728507;0.0765168;0.0803657;0.0842301;0.0879175;0.0917582;0.0953712;0.098826;0.102237;0.105364;0.108404;0.111259;0.113845;0.11653;0.119054;0.121515;0.124039;0.12645;0.12895;0.131362;0.133583;0.135766;0.137728;0.139434;0.140924;0.142102;0.143015;0.143677;0.144007;0.144061;0.143824;0.143296;0.14245;0.14132;0.139868;0.138132;0.136264;0.134156;0.131967;0.129763;0.127515;0.125397;0.123323;0.121323;0.119538;0.117816;0.116259;0.114875;0.11359;0.112465;0.111474;0.110566;0.1098;0.109085;0.108465;0.10793;0.10741;0.106972;0.106532;0.10613;0.105738;0.105339;0.104935;0.104521;0.104061;0.1036;0.103088;0.102539;0.101987;0.101409;0.100846;0.100299;0.0997615;0.0992887;0.0988942;0.0985594;0.0983129;0.0981629;0.0981024;0.0981431;0.0983162;0.0985983;0.0990203;0.0995862;0.100282;0.101161;0.102197;0.103365;0.10479;0.106309;0.108077;0.110023;0.112103;0.114426;0.116877;0.119463;0.122297;0.125106;0.128156;0.131264;0.134379;0.137657;0.140863;0.144108;0.14744;0.150585;0.153787;0.156861;0.159778;0.162654;0.165311;0.167939;0.170508;0.172913;0.175435;0.177928;0.180519;0.183436;0.186444;0.189918;0.193755;0.19789;0.202611;0.207623;0.213262;0.219469;0.225914;0.23303;0.240678;0.248624;0.257329;0.265996;0.275258;0.284666;0.293846;0.303387;0.312545;0.321565;0.330493;0.338709;0.346812;0.354269;0.361126;0.367596;0.373239;0.378351;0.382874;0.386659;0.390043;0.392829;0.395211;0.397269;0.398945;0.400383;0.401584;0.402602;0.403437;0.404123;0.404655;0.405059;0.405277;0.405358;0.405297;0.405084;0.404706;0.404203;0.403538;0.402783;0.40195;0.400998;0.400042;0.398969;0.397885;0.39673;0.395478;0.394232;0.392897;0.391489;0.390177;0.388731;0.387314;0.385789;0.384335;0.382934;0.381515;0.380109;0.378733;0.377435;0.376184;0.374984;0.373843;0.372817;0.371874;0.371005;0.370241;0.369497;0.368873;0.368239;0.367673;0.367231;0.366717;0.366286;0.365878;0.365492;0.36515;0.364774;0.364457;0.364125;0.363792;0.363467;0.363095;0.362679;0.36223;0.361674;0.361062;0.360339;0.359557;0.358662;0.357649;0.356572;0.355297;0.354007;0.35253;0.350966;0.349316;0.347473;0.34566;0.343698;0.341659;0.339669;0.337514;0.335438;0.333297;0.331142;0.329062;0.326918;0.324892;0.322827;0.320788;0.318845;0.316864;0.314989;0.313099;0.31125;0.309502;0.307722;0.30608;0.304418;0.302831;0.301359;0.299888;0.298578;0.297302;0.296122;0.295101;0.294176;0.293421;0.292793;0.292276;0.291918;0.291672;0.291597;0.291711;0.292079;0.292719;0.293739;0.295089;0.296888;0.2991;0.301659;0.304716;0.307905;0.31137;0.314828;0.318116;0.321292;0.324099;0.32661;0.328707;0.330425;0.331739;0.332681;0.333386;0.333914;0.334406;0.334904;0.335396;0.335918;0.336463;0.337007;0.337513;0.337928;0.338265;0.338498;0.338696;0.338918;0.339251;0.339739;0.340346;0.341155;0.342022;0.342888;0.343734;0.344442;0.345065;0.345539;0.345926;0.346227;0.346448;0.346649;0.346741;0.346813;0.346877;0.346895;0.346887;0.346796;0.346562;0.346145;0.34553;0.344654;0.343629;0.342406;0.341044;0.33959;0.338014;0.336438;0.334782;0.333193;0.331613;0.330046;0.328625;0.327249;0.326001;0.324844;0.323786;0.322827;0.32187;0.320931;0.319874;0.318796;0.317671;0.316433;0.315149;0.313792;0.312461;0.311038;0.309588;0.308085;0.306568;0.305183;0.303882;0.302795;0.301932;0.301307;0.300991;0.300991;0.301274;0.3019;0.302877;0.30423;0.306054;0.308347;0.311189;0.314455;0.31837;0.32279;0.327729;0.333624;0.340178;0.347978;0.356665;0.366698;0.377871;0.38983;0.403145;0.41675;0.431501;0.4463;0.461515;0.476903;0.491413;0.505779;0.518879;0.531479;0.542864;0.553415;0.563252;0.571665;0.579486;0.586028;0.591665;0.59609;0.599486;0.601762;0.602842;0.602929;0.602084;0.600244;0.597734;0.594582;0.590956;0.587126;0.582931;0.578812;0.574418;0.570167;0.565834;0.561444;0.557252;0.553052;0.548922;0.544708;0.54063;0.536514;0.532424;0.528408;0.524341;0.520418;0.516371;0.512541;0.508673;0.504872;0.501246;0.497722;0.494421;0.491243;0.488416;0.485757;0.483428;0.481452;0.47982;0.478512;0.477666;0.477163;0.476969;0.477176;0.477789;0.478825;0.480183;0.482075;0.484249;0.486853;0.489677;0.492864;0.496191;0.499733;0.503584;0.50735;0.511329;0.515327;0.519415;0.523396;0.52743;0.531309;0.53495;0.538589;0.541848;0.545082;0.548003;0.550864;0.55352;0.555998;0.55845;0.560742;0.562943;0.565027;0.566967;0.568743;0.570534;0.572141;0.573635;0.574977;0.576204;0.577127;0.578145;0.579017;0.579721;0.580313;0.580787;0.581123;0.581233;0.581284;0.581243;0.580954;0.580665;0.58023;0.579723;0.579022;0.57823;0.577354;0.576249;0.575036;0.573717;0.572269;0.57077;0.569164;0.567529;0.565812;0.564063;0.562117;0.560278;0.558092;0.555943;0.553814;0.551632;0.549478;0.547274;0.545155;0.543056;0.541053;0.538923;0.536853;0.534681;0.532637;0.530454;0.528215;0.525956;0.523792;0.521563;0.519169;0.516911;0.514509;0.512277;0.509908;0.507613;0.505367;0.503255;0.50109;0.499075;0.497064;0.495143;0.493234;0.491384;0.48967;0.488032;0.486486;0.485052;0.483781;0.48269;0.481835;0.481108;0.480786;0.48074;0.481097;0.481919;0.483191;0.484879;0.487175;0.490005;0.493449;0.497425;0.502005;0.506891;0.512406;0.518108;0.52433;0.530455;0.536838;0.542993;0.549275;0.555171;0.561225;0.567104;0.573025;0.578971;0.585009;0.59076;0.596015;0.600553;0.603783;0.605869;0.606799;0.606722;0.606363;0.60594;0.606053;0.606711;0.608144;0.610242;0.612559;0.615213;0.617427;0.619318;0.620521;0.62113;0.621107;0.620839;0.620391;0.619782;0.619214;0.61849;0.617638;0.616653;0.615699;0.614842;0.614131;0.613552;0.613186;0.61295;0.612847;0.61238;0.611687;0.610596;0.609333;0.607786;0.606458;0.605426;0.604781;0.604426;0.604262;0.604262;0.604429;0.604437;0.604465;0.604313;0.604196;0.604096;0.603934;0.603811;0.603896;0.604042;0.604357;0.604924;0.605868;0.607048;0.608364;0.610022;0.612151;0.614517;0.61723;0.620113;0.623279;0.626494;0.62992;0.633477;0.637033;0.64074;0.64447;0.647998;0.65167;0.655183;0.658806;0.662607;0.666401;0.670499;0.674675;0.678792;0.682792;0.68712;0.691202;0.69556;0.69952;0.703551;0.707253;0.711202;0.714669;0.718327;0.721829;0.725584;0.72862;0.732072;0.735323;0.738472;0.741252;0.743771;0.746291;0.748536;0.750306;0.751934;0.753464;0.754367;0.755055;0.755715;0.756061;0.756017;0.75591;0.755526;0.75501
0.0534007;0.053205;0.053114;0.0530821;0.053096;0.053086;0.05323;0.0534536;0.0537612;0.0541968;0.0548013;0.0556831;0.0567479;0.0581747;0.0599526;0.0620317;0.0645502;0.0673795;0.0704994;0.0740393;0.077686;0.081565;0.0857156;0.0898093;0.0941092;0.0984333;0.102557;0.106852;0.110883;0.11475;0.118548;0.122009;0.125386;0.128563;0.1314;0.134337;0.137101;0.139809;0.142603;0.145289;0.14807;0.150784;0.153279;0.155755;0.157971;0.15992;0.161636;0.163009;0.16409;0.164898;0.165336;0.165481;0.165289;0.164752;0.163836;0.162607;0.160987;0.159038;0.156913;0.154506;0.151992;0.149485;0.146904;0.144467;0.142103;0.139827;0.137803;0.135845;0.134083;0.132529;0.131068;0.129807;0.128678;0.127665;0.126801;0.126005;0.125299;0.124693;0.124104;0.123606;0.123116;0.122645;0.122204;0.121749;0.121301;0.120832;0.120317;0.119791;0.11922;0.118625;0.118019;0.117374;0.116752;0.116169;0.115588;0.115094;0.11465;0.114294;0.11404;0.113889;0.113835;0.113898;0.114108;0.114431;0.114906;0.115535;0.116315;0.117297;0.118445;0.119753;0.121336;0.123015;0.12499;0.127162;0.129474;0.132053;0.134781;0.137655;0.14079;0.143907;0.147284;0.150735;0.154178;0.15781;0.161349;0.164936;0.168639;0.172137;0.175716;0.179138;0.182385;0.185599;0.188569;0.191493;0.194385;0.197083;0.199925;0.202728;0.205664;0.208944;0.212351;0.216285;0.220624;0.225263;0.230588;0.236154;0.242407;0.249385;0.256572;0.264646;0.273199;0.282136;0.291889;0.301617;0.311986;0.322542;0.332789;0.343444;0.353622;0.363697;0.373616;0.382753;0.391767;0.400043;0.407605;0.414723;0.420939;0.42654;0.431568;0.435695;0.439471;0.442543;0.445202;0.447473;0.449335;0.450919;0.452233;0.453344;0.454263;0.454978;0.455582;0.456011;0.456249;0.456323;0.456247;0.455989;0.455567;0.455023;0.454279;0.453406;0.452464;0.451365;0.450261;0.449047;0.447798;0.446489;0.445064;0.443669;0.442109;0.440606;0.439063;0.437506;0.435926;0.434281;0.43267;0.431112;0.42954;0.427966;0.426473;0.42502;0.423632;0.422331;0.421092;0.420016;0.418965;0.418027;0.417171;0.41642;0.415747;0.415113;0.414549;0.414005;0.413519;0.413111;0.412672;0.412283;0.411919;0.411562;0.411238;0.410885;0.410532;0.410193;0.409787;0.409351;0.408844;0.408239;0.407558;0.406777;0.405914;0.404908;0.40384;0.402626;0.401266;0.39984;0.398236;0.396569;0.394752;0.392775;0.390807;0.388633;0.386465;0.384247;0.381909;0.379683;0.377337;0.37499;0.372719;0.370373;0.36815;0.365884;0.363644;0.361509;0.359317;0.357261;0.355234;0.3532;0.351273;0.349335;0.347504;0.34571;0.343992;0.342372;0.340791;0.339348;0.337959;0.33669;0.335593;0.334619;0.33382;0.333159;0.332656;0.332273;0.332057;0.331982;0.332121;0.332556;0.333265;0.334435;0.33594;0.337934;0.340405;0.343314;0.346757;0.350387;0.354333;0.358256;0.362071;0.365789;0.369091;0.3722;0.374825;0.376988;0.378727;0.379998;0.380989;0.381756;0.382417;0.38306;0.383687;0.384356;0.384968;0.38555;0.386057;0.386419;0.38663;0.386668;0.386632;0.386625;0.386763;0.387152;0.387702;0.388545;0.389483;0.390473;0.391507;0.392395;0.393182;0.39385;0.394382;0.394809;0.395106;0.395281;0.395332;0.395337;0.395298;0.395247;0.395152;0.394976;0.394672;0.394171;0.393431;0.392468;0.391345;0.38999;0.388486;0.386906;0.385158;0.383432;0.381613;0.379852;0.378068;0.376363;0.374759;0.373198;0.371802;0.370489;0.369269;0.368189;0.367062;0.365998;0.364829;0.363637;0.36229;0.360928;0.359528;0.358003;0.356502;0.354882;0.353266;0.351629;0.34998;0.348457;0.346999;0.34578;0.344819;0.344127;0.343745;0.343739;0.344046;0.344796;0.345842;0.347298;0.349293;0.351773;0.354928;0.358598;0.363014;0.368004;0.373513;0.38007;0.387299;0.395883;0.405443;0.416478;0.428787;0.441906;0.45654;0.47142;0.487481;0.503627;0.520155;0.536871;0.5525;0.567947;0.581894;0.595328;0.607374;0.618529;0.628795;0.637692;0.645833;0.65263;0.658497;0.663075;0.666572;0.668944;0.670176;0.670354;0.66957;0.667728;0.665228;0.662122;0.6585;0.654623;0.650383;0.646189;0.64169;0.637225;0.632846;0.628276;0.623892;0.619413;0.615099;0.61065;0.606374;0.602;0.597699;0.593462;0.589136;0.584931;0.580673;0.576589;0.572471;0.56842;0.564585;0.560808;0.55733;0.553927;0.550884;0.54805;0.545546;0.54342;0.541565;0.540225;0.539238;0.538728;0.538505;0.538728;0.539354;0.540468;0.541906;0.543848;0.546217;0.549014;0.55195;0.555407;0.559002;0.562734;0.566762;0.57078;0.57508;0.579254;0.583619;0.587756;0.591965;0.595988;0.599803;0.603408;0.606846;0.610267;0.613287;0.616265;0.618998;0.621562;0.624054;0.626412;0.628682;0.63086;0.632853;0.634747;0.636524;0.638168;0.639696;0.641079;0.642372;0.643591;0.64457;0.64549;0.646191;0.646853;0.647282;0.647667;0.647823;0.647879;0.647832;0.647631;0.647268;0.646849;0.646239;0.645622;0.644749;0.643804;0.642684;0.641478;0.640128;0.638649;0.63709;0.635466;0.633855;0.632122;0.630316;0.628346;0.626397;0.62419;0.621918;0.619574;0.617245;0.614934;0.612643;0.610474;0.608276;0.606138;0.603956;0.601803;0.599563;0.597437;0.595051;0.592751;0.590466;0.588153;0.585753;0.583176;0.580798;0.578227;0.575816;0.573307;0.57092;0.568517;0.566253;0.56396;0.561867;0.559747;0.557694;0.555708;0.553805;0.551955;0.550232;0.548665;0.547185;0.545898;0.544763;0.543919;0.543364;0.543078;0.543167;0.543704;0.544689;0.54617;0.548232;0.550901;0.554036;0.557956;0.562319;0.567343;0.572783;0.578822;0.585008;0.59169;0.598307;0.605196;0.611831;0.618628;0.625006;0.63154;0.637731;0.644077;0.650151;0.656359;0.662234;0.667663;0.672307;0.675848;0.678362;0.6795;0.679834;0.679746;0.68004;0.680405;0.681609;0.683427;0.685952;0.688695;0.691702;0.694142;0.695883;0.696859;0.697024;0.696618;0.695958;0.695254;0.694394;0.6938;0.692985;0.692285;0.691382;0.690603;0.689839;0.689403;0.689104;0.68906;0.68923;0.689339;0.689152;0.688612;0.687491;0.685985;0.6841;0.682512;0.681295;0.680438;0.679904;0.679753;0.679793;0.679881;0.679923;0.679959;0.679851;0.679762;0.679702;0.679637;0.679587;0.679768;0.679788;0.680169;0.680816;0.681662;0.682687;0.684207;0.685905;0.68789;0.690287;0.692826;0.695768;0.698871;0.702071;0.705389;0.708916;0.712473;0.716183;0.719748;0.723454;0.727008;0.730609;0.734251;0.73813;0.74202;0.745918;0.74982;0.754131;0.7581;0.762228;0.766232;0.770515;0.774342;0.778478;0.782208;0.786069;0.789666;0.793293;0.796953;0.800227;0.8034;0.806912;0.81005;0.812985;0.815778;0.818458;0.820818;0.822956;0.824726;0.826323;0.827783;0.828773;0.82955;0.830008;0.830355;0.830427;0.830202;0.829702;0.829341
0.0533006;0.0531016;0.0530226;0.0529949;0.0530425;0.0530239;0.053157;0.0534336;0.0537662;0.0542024;0.054821;0.0557326;0.0568193;0.0582737;0.0600756;0.0621852;0.0647174;0.0675495;0.070678;0.0742088;0.0778285;0.0816698;0.0857749;0.0898154;0.0940581;0.0983044;0.102365;0.106592;0.110556;0.114359;0.118111;0.121575;0.12491;0.12808;0.13092;0.133851;0.136619;0.139285;0.142041;0.144673;0.147368;0.149999;0.152402;0.154766;0.156899;0.158745;0.160365;0.161631;0.16262;0.163339;0.163694;0.163771;0.163521;0.162949;0.162036;0.160816;0.159245;0.157363;0.155313;0.153008;0.150617;0.148222;0.145743;0.143423;0.141164;0.138986;0.137027;0.135146;0.133431;0.131923;0.130499;0.129277;0.128168;0.12717;0.126328;0.125534;0.124847;0.124238;0.123681;0.123188;0.122697;0.122244;0.121828;0.121388;0.120946;0.120492;0.119998;0.119482;0.11892;0.118338;0.117732;0.117092;0.11649;0.115896;0.115321;0.114825;0.114379;0.114017;0.113776;0.11361;0.113567;0.113635;0.113842;0.114164;0.114646;0.115286;0.116061;0.117032;0.118182;0.119491;0.121065;0.122734;0.124701;0.126863;0.129159;0.131737;0.134452;0.137303;0.140431;0.14353;0.146896;0.150312;0.153725;0.157319;0.160816;0.164359;0.167991;0.171422;0.174944;0.17831;0.181504;0.184673;0.187603;0.1905;0.193346;0.196001;0.19877;0.201511;0.204347;0.207564;0.210894;0.214756;0.219024;0.223617;0.228865;0.234358;0.240543;0.247397;0.254498;0.262441;0.270846;0.279585;0.289158;0.298652;0.308812;0.319107;0.32913;0.339534;0.349462;0.359262;0.368923;0.377836;0.386601;0.394652;0.402018;0.408928;0.414994;0.42045;0.425317;0.429364;0.43305;0.436089;0.438702;0.440946;0.44277;0.444333;0.445663;0.446737;0.447684;0.448358;0.448967;0.449358;0.449647;0.449694;0.44966;0.449404;0.449005;0.44843;0.447711;0.446872;0.445965;0.444941;0.443891;0.442761;0.44157;0.440365;0.438993;0.43772;0.436238;0.434752;0.43323;0.431722;0.43013;0.428536;0.426883;0.425319;0.423717;0.42214;0.420628;0.419088;0.417722;0.416342;0.415053;0.413898;0.412774;0.411858;0.410895;0.410079;0.409329;0.40862;0.408034;0.407444;0.407008;0.406488;0.406054;0.405643;0.405241;0.404894;0.40451;0.404162;0.403832;0.403432;0.403062;0.402596;0.402084;0.401528;0.400826;0.400057;0.399224;0.398259;0.397209;0.396036;0.39471;0.393345;0.391796;0.390131;0.388348;0.386434;0.384497;0.382407;0.380305;0.37813;0.37588;0.373693;0.371401;0.369162;0.366921;0.36467;0.362555;0.360344;0.358189;0.356154;0.354056;0.352086;0.350085;0.34812;0.34628;0.344389;0.342649;0.34092;0.339263;0.33772;0.336199;0.334809;0.333524;0.332327;0.331305;0.330403;0.329676;0.329131;0.328707;0.328439;0.32829;0.328308;0.32855;0.329012;0.329784;0.330946;0.332426;0.334398;0.336733;0.339471;0.342772;0.346202;0.349918;0.353642;0.357164;0.36062;0.363668;0.366468;0.368815;0.370766;0.372292;0.373421;0.374323;0.375039;0.375673;0.37631;0.37693;0.377594;0.378247;0.378847;0.379388;0.379792;0.380071;0.380207;0.380271;0.380383;0.380591;0.38099;0.381572;0.382357;0.383243;0.384133;0.385042;0.385785;0.38648;0.387014;0.387448;0.387803;0.388073;0.388263;0.388336;0.388389;0.388378;0.38836;0.388309;0.388156;0.387861;0.387396;0.386741;0.385822;0.38476;0.383459;0.38205;0.380527;0.378857;0.377222;0.375478;0.37377;0.372076;0.370434;0.368907;0.367426;0.366082;0.364806;0.363651;0.362562;0.361483;0.360446;0.359322;0.358159;0.356881;0.355562;0.354167;0.352676;0.351253;0.34969;0.348109;0.346569;0.344963;0.343495;0.342131;0.340998;0.340094;0.339454;0.339142;0.339135;0.339486;0.34019;0.341232;0.342674;0.344583;0.346997;0.350101;0.353667;0.358025;0.362933;0.368376;0.374806;0.381934;0.390325;0.399732;0.410591;0.422658;0.435528;0.449942;0.464529;0.480363;0.496275;0.512586;0.529064;0.544649;0.559984;0.57387;0.587238;0.59925;0.610369;0.620613;0.629445;0.637607;0.644483;0.650283;0.654889;0.658381;0.660736;0.661931;0.662037;0.661198;0.6594;0.656867;0.653754;0.650099;0.646147;0.641903;0.637631;0.633153;0.628711;0.624243;0.619674;0.615364;0.610836;0.606554;0.602193;0.59788;0.593631;0.589296;0.585139;0.580807;0.57668;0.572479;0.568429;0.564346;0.560357;0.556574;0.552777;0.549323;0.545951;0.542932;0.540055;0.537606;0.535439;0.533634;0.53229;0.5313;0.530765;0.530525;0.530755;0.531389;0.532442;0.533863;0.535863;0.538151;0.540846;0.543717;0.547143;0.550672;0.554325;0.558282;0.562233;0.566427;0.570514;0.574782;0.578925;0.583023;0.587016;0.59081;0.594467;0.597844;0.601055;0.603942;0.606822;0.609444;0.611931;0.614366;0.616589;0.618762;0.620729;0.622746;0.624546;0.626234;0.627868;0.629358;0.630639;0.6319;0.633084;0.633999;0.634804;0.635551;0.636089;0.636612;0.636963;0.637133;0.63717;0.637148;0.63697;0.636563;0.636182;0.635645;0.63496;0.634139;0.633347;0.632196;0.630903;0.629598;0.628177;0.626683;0.62507;0.62355;0.621884;0.620112;0.6182;0.616309;0.614136;0.612005;0.609704;0.607521;0.605297;0.603157;0.600986;0.598873;0.596853;0.594708;0.592642;0.590438;0.588361;0.586105;0.583815;0.581554;0.579305;0.576945;0.574536;0.572137;0.569732;0.567319;0.564891;0.562594;0.560289;0.55811;0.555854;0.553768;0.551685;0.549696;0.547746;0.545966;0.544156;0.542523;0.540885;0.539507;0.538282;0.53717;0.536345;0.535794;0.535582;0.535702;0.536273;0.53735;0.538928;0.541027;0.543661;0.546881;0.550782;0.555042;0.560093;0.565351;0.571351;0.577407;0.583808;0.5902;0.596902;0.603253;0.609687;0.615727;0.622098;0.628053;0.634074;0.639942;0.645839;0.651482;0.656717;0.661033;0.664379;0.666608;0.667653;0.668003;0.667815;0.667758;0.668157;0.669134;0.67081;0.673094;0.675585;0.678498;0.680844;0.682692;0.683835;0.684232;0.684024;0.68361;0.683032;0.682445;0.681924;0.68114;0.680316;0.679645;0.678754;0.678119;0.677528;0.67712;0.676905;0.676942;0.676938;0.676609;0.676087;0.67499;0.673643;0.671903;0.670386;0.669182;0.668436;0.668025;0.667852;0.667781;0.667781;0.667754;0.667794;0.667669;0.667607;0.667477;0.667374;0.667106;0.667223;0.667359;0.66771;0.668268;0.66909;0.670196;0.671447;0.673185;0.675071;0.677348;0.67989;0.682875;0.685837;0.689059;0.692473;0.695907;0.699483;0.703162;0.706613;0.710417;0.713986;0.717864;0.72169;0.725533;0.72938;0.733525;0.737501;0.741707;0.745757;0.750182;0.754426;0.758712;0.762853;0.76681;0.770788;0.774595;0.77827;0.782113;0.785748;0.789668;0.793103;0.796579;0.799629;0.802875;0.805813;0.808626;0.811111;0.813165;0.815009;0.81686;0.818346;0.819286;0.819927;0.820423;0.820875;0.821204;0.820958;0.820517;0.820229
0.0409727;0.040853;0.0407816;0.040669;0.0406625;0.0407014;0.0407691;0.0409191;0.0411573;0.0415542;0.0420814;0.042827;0.0437447;0.0449677;0.0465233;0.0482863;0.0504618;0.0529046;0.0555714;0.0586179;0.0617584;0.0651;0.068661;0.0721883;0.0759655;0.0797252;0.0833293;0.0870682;0.090588;0.0939956;0.0972697;0.100243;0.103137;0.105861;0.10827;0.110708;0.113052;0.115333;0.117724;0.119988;0.122348;0.124714;0.12687;0.129027;0.130945;0.132664;0.134187;0.135399;0.136376;0.137105;0.137535;0.1377;0.13759;0.137165;0.136423;0.135396;0.134025;0.132349;0.130493;0.12839;0.126172;0.123962;0.121676;0.119527;0.11744;0.115407;0.113607;0.111879;0.110305;0.108926;0.107623;0.106521;0.105502;0.104609;0.103834;0.103117;0.102475;0.101923;0.101391;0.100927;0.100484;0.100035;0.0996368;0.0992122;0.0988018;0.098363;0.0979016;0.0974126;0.0969097;0.0963706;0.0958278;0.0952536;0.0947118;0.0941778;0.0936543;0.0932264;0.0928366;0.0925052;0.0922747;0.0921175;0.0920706;0.0921147;0.0922768;0.0925463;0.0929634;0.0934975;0.0941595;0.0949975;0.0959827;0.0971043;0.0984579;0.099906;0.101606;0.103462;0.105461;0.107694;0.110038;0.112515;0.115246;0.117934;0.120853;0.123845;0.126835;0.129996;0.133111;0.136276;0.139516;0.142591;0.145747;0.148746;0.151583;0.154382;0.156947;0.159483;0.161962;0.164277;0.166708;0.169139;0.171675;0.174533;0.177489;0.180879;0.184616;0.188613;0.193186;0.198037;0.203448;0.209407;0.215616;0.222564;0.229859;0.23753;0.245928;0.254332;0.263282;0.272409;0.281256;0.290499;0.299315;0.308047;0.316673;0.324608;0.332434;0.339656;0.346243;0.352468;0.357911;0.362833;0.367237;0.370846;0.37411;0.37679;0.379098;0.381075;0.382682;0.384084;0.385235;0.386194;0.386988;0.387625;0.388146;0.388499;0.388751;0.388801;0.388752;0.388492;0.388107;0.387601;0.386935;0.386156;0.385268;0.384284;0.383269;0.382164;0.38101;0.379814;0.378556;0.377266;0.375945;0.374539;0.373189;0.371727;0.370283;0.368769;0.367245;0.365782;0.364306;0.362847;0.361444;0.36007;0.358786;0.357536;0.356409;0.355382;0.354393;0.353544;0.352715;0.352011;0.351367;0.35077;0.350256;0.349797;0.349389;0.348973;0.348609;0.348278;0.347977;0.34768;0.347346;0.347069;0.346771;0.346442;0.346081;0.345652;0.345208;0.344703;0.344107;0.343403;0.342657;0.341763;0.340845;0.339804;0.338611;0.337373;0.335998;0.334501;0.332944;0.331213;0.329453;0.327586;0.325663;0.323734;0.321722;0.319747;0.317697;0.315698;0.313732;0.311684;0.309747;0.307772;0.305849;0.303987;0.302102;0.300313;0.298528;0.296793;0.295134;0.29347;0.291902;0.290356;0.288893;0.287533;0.286179;0.284973;0.283826;0.282748;0.281855;0.281048;0.280409;0.279911;0.2795;0.279206;0.279031;0.278962;0.279065;0.279418;0.280012;0.280978;0.282237;0.283926;0.286032;0.288479;0.291402;0.294456;0.297797;0.301162;0.304415;0.307606;0.31045;0.313149;0.315417;0.317281;0.318815;0.319911;0.320789;0.321441;0.321995;0.322545;0.323061;0.323613;0.324124;0.324571;0.324972;0.325242;0.325384;0.325392;0.325349;0.32535;0.32547;0.325765;0.326243;0.326948;0.327767;0.328645;0.329501;0.330282;0.330978;0.331567;0.332066;0.33246;0.332729;0.332923;0.333004;0.33305;0.333042;0.332992;0.332931;0.332792;0.33251;0.332069;0.331461;0.330628;0.329659;0.328516;0.327211;0.325833;0.32435;0.322886;0.321313;0.319811;0.318314;0.316834;0.315489;0.314181;0.312995;0.31188;0.310895;0.309952;0.309033;0.308153;0.30716;0.306134;0.305049;0.303848;0.302697;0.301437;0.300195;0.298862;0.297489;0.296106;0.294672;0.293356;0.292109;0.291057;0.290224;0.289627;0.28931;0.289285;0.289533;0.290109;0.291027;0.292328;0.294047;0.296245;0.299006;0.302112;0.305868;0.310031;0.314708;0.320283;0.326475;0.333891;0.342211;0.351826;0.362566;0.374126;0.387029;0.40025;0.414627;0.429108;0.444045;0.45915;0.473421;0.487534;0.500397;0.51282;0.524;0.534409;0.544081;0.552374;0.560014;0.566403;0.571849;0.576167;0.57937;0.581527;0.582527;0.5825;0.581509;0.579656;0.577051;0.573887;0.570265;0.566365;0.562147;0.557981;0.553657;0.549323;0.544996;0.540603;0.536396;0.531985;0.527852;0.523579;0.519465;0.515293;0.511118;0.507112;0.502981;0.49909;0.495088;0.491234;0.487438;0.48374;0.480189;0.47671;0.47352;0.470408;0.467627;0.465062;0.462827;0.460859;0.459248;0.458021;0.457139;0.456675;0.456465;0.456679;0.457256;0.458226;0.459588;0.461393;0.463479;0.465951;0.46868;0.471749;0.475011;0.478416;0.482054;0.485751;0.489597;0.493388;0.497378;0.501211;0.505028;0.508825;0.512426;0.515916;0.519223;0.522478;0.525393;0.528276;0.530913;0.533528;0.535979;0.538336;0.540617;0.5427;0.54474;0.546533;0.54831;0.549927;0.551428;0.552743;0.554015;0.55514;0.556056;0.556935;0.557608;0.558208;0.558608;0.558903;0.559038;0.559052;0.558967;0.558777;0.558228;0.557742;0.557163;0.55643;0.555543;0.55469;0.5535;0.552208;0.550823;0.549373;0.547758;0.54603;0.544397;0.5426;0.540787;0.538799;0.536863;0.534655;0.53238;0.530064;0.527766;0.525505;0.523232;0.521052;0.518852;0.516699;0.514524;0.512439;0.510282;0.50832;0.506114;0.503973;0.501749;0.499516;0.497365;0.495094;0.492852;0.490507;0.488308;0.485994;0.483842;0.481638;0.479585;0.477542;0.475615;0.47365;0.471806;0.470058;0.468379;0.466759;0.465223;0.463851;0.462594;0.461464;0.460517;0.459826;0.459343;0.45917;0.459351;0.459854;0.460628;0.462011;0.463903;0.466341;0.469223;0.472727;0.476645;0.48125;0.486061;0.491439;0.496922;0.502897;0.508798;0.514883;0.520805;0.526717;0.532497;0.538267;0.54387;0.549556;0.55522;0.560818;0.56625;0.571305;0.575572;0.578593;0.580615;0.581324;0.581542;0.581183;0.580796;0.580871;0.581647;0.582985;0.58503;0.587301;0.589822;0.592176;0.594108;0.595302;0.596082;0.596327;0.596258;0.595912;0.595447;0.59498;0.59427;0.593529;0.592659;0.591874;0.591009;0.590227;0.589638;0.589345;0.5891;0.588783;0.588399;0.587675;0.586622;0.585363;0.58395;0.582699;0.581771;0.581077;0.580657;0.580548;0.580689;0.580573;0.580572;0.580596;0.580478;0.580423;0.580243;0.580088;0.58001;0.580054;0.580161;0.580524;0.58104;0.581867;0.582878;0.584243;0.585874;0.587773;0.590087;0.592637;0.595486;0.598366;0.601641;0.604828;0.608331;0.611727;0.615309;0.618909;0.622514;0.626055;0.629731;0.63334;0.637185;0.640895;0.644885;0.648868;0.653033;0.65712;0.66137;0.665571;0.66974;0.67369;0.677717;0.681651;0.68551;0.689306;0.692943;0.696369;0.699975;0.703465;0.706899;0.710241;0.71342;0.716272;0.719115;0.721769;0.723891;0.725884;0.727653;0.729061;0.730236;0.731042;0.731775;0.732197;0.732163;0.732031;0.731663;0.731489
0.0367198;0.0366605;0.0365452;0.0364454;0.0364141;0.0364483;0.0364885;0.0365794;0.0367602;0.0371112;0.0375593;0.0382035;0.0390081;0.0400862;0.0414425;0.0429994;0.0449243;0.0470911;0.0494496;0.0521468;0.0549473;0.0579169;0.0610673;0.0641912;0.0675714;0.0709149;0.0740579;0.0773287;0.0804032;0.0833906;0.0862862;0.0888697;0.0914789;0.0939406;0.096128;0.0983552;0.100516;0.102634;0.104802;0.106859;0.108989;0.111094;0.112997;0.114896;0.116627;0.118126;0.119485;0.120561;0.12141;0.122023;0.122351;0.122445;0.122287;0.12184;0.121121;0.120183;0.118951;0.117494;0.115911;0.114145;0.112272;0.110431;0.108537;0.106742;0.10499;0.103274;0.101747;0.100278;0.0989494;0.0977566;0.0966545;0.0957124;0.0948514;0.0941016;0.093452;0.0928549;0.0923157;0.0918608;0.0914081;0.0910174;0.090614;0.0902375;0.0898706;0.089498;0.0891191;0.0887151;0.0882971;0.0878528;0.0873889;0.086895;0.086418;0.0858949;0.0854045;0.0849271;0.0844509;0.0840562;0.0837102;0.0834228;0.0832195;0.0830912;0.0830477;0.0830966;0.0832582;0.0835111;0.0838797;0.0843823;0.0849876;0.0857671;0.0866749;0.0877173;0.0889696;0.0903079;0.0918656;0.0935848;0.0954187;0.0974842;0.0996284;0.101905;0.104391;0.106858;0.109533;0.112267;0.114981;0.117834;0.120636;0.123497;0.126417;0.129156;0.131978;0.134701;0.137267;0.139778;0.1421;0.144385;0.146605;0.148687;0.150892;0.153061;0.155346;0.157897;0.160567;0.163637;0.167034;0.170704;0.17495;0.179495;0.184605;0.19026;0.196183;0.202807;0.209785;0.217104;0.22504;0.232985;0.241523;0.250182;0.258692;0.267536;0.276047;0.284461;0.292816;0.300499;0.308076;0.315043;0.321451;0.327487;0.332756;0.337539;0.341787;0.345312;0.34852;0.351191;0.353468;0.355437;0.35699;0.358378;0.359486;0.36043;0.361174;0.361799;0.362285;0.362628;0.362813;0.362858;0.362793;0.362543;0.362148;0.361615;0.360972;0.360158;0.359287;0.358281;0.35725;0.356147;0.355009;0.353799;0.352489;0.35123;0.349847;0.348484;0.347099;0.345631;0.344202;0.342749;0.341287;0.339876;0.33847;0.33711;0.335826;0.334534;0.333403;0.332298;0.331318;0.330425;0.32957;0.32885;0.328141;0.327532;0.327012;0.326558;0.326113;0.325735;0.325401;0.325059;0.324746;0.324463;0.324179;0.323913;0.323655;0.323382;0.323081;0.322761;0.322418;0.322024;0.3216;0.321094;0.320507;0.319817;0.319108;0.31831;0.317363;0.316358;0.315207;0.313995;0.312634;0.311167;0.309627;0.307946;0.306244;0.304398;0.302544;0.300643;0.298655;0.296714;0.294703;0.292722;0.290785;0.288778;0.286893;0.284955;0.283048;0.281232;0.279372;0.277614;0.27585;0.274134;0.272501;0.27084;0.26931;0.267765;0.26628;0.264898;0.263527;0.262271;0.261058;0.259932;0.258942;0.258024;0.257249;0.256589;0.256018;0.255573;0.255231;0.255002;0.254955;0.255138;0.255535;0.256305;0.257338;0.258766;0.260588;0.262704;0.265293;0.268009;0.271007;0.273979;0.276866;0.279662;0.282076;0.284267;0.286039;0.287413;0.288427;0.289101;0.289574;0.289918;0.290191;0.290482;0.290804;0.291168;0.291555;0.291977;0.292401;0.292802;0.293196;0.293556;0.293947;0.294406;0.294962;0.295665;0.296453;0.297377;0.298316;0.299248;0.300113;0.30084;0.301419;0.301869;0.302266;0.302607;0.302873;0.303129;0.303367;0.303609;0.303874;0.304081;0.304254;0.304323;0.304244;0.30398;0.30349;0.302767;0.30185;0.300744;0.299508;0.298154;0.29668;0.295241;0.293701;0.292221;0.290764;0.289314;0.28798;0.28671;0.285559;0.284461;0.283511;0.282612;0.281715;0.280898;0.279959;0.278991;0.277964;0.276845;0.2757;0.274479;0.27323;0.271919;0.270625;0.269288;0.267883;0.266613;0.265441;0.264457;0.263683;0.263128;0.262837;0.262856;0.263112;0.263715;0.264605;0.265846;0.267526;0.269649;0.272326;0.275357;0.279039;0.283122;0.28773;0.29323;0.299287;0.306528;0.314626;0.323992;0.334397;0.345646;0.358203;0.371051;0.384991;0.399085;0.413636;0.428308;0.442235;0.456022;0.468597;0.480773;0.49175;0.501968;0.511526;0.519744;0.527343;0.533755;0.539244;0.543575;0.546837;0.549066;0.550117;0.550119;0.54921;0.547347;0.544796;0.541634;0.538047;0.534233;0.530067;0.525951;0.521616;0.517309;0.512991;0.508678;0.504472;0.500117;0.495996;0.491774;0.487635;0.483473;0.479374;0.475364;0.471277;0.467392;0.463431;0.459607;0.455814;0.452143;0.448662;0.445234;0.442081;0.439003;0.436234;0.433693;0.431484;0.429553;0.427959;0.426754;0.425843;0.4254;0.42522;0.425444;0.426081;0.427036;0.428336;0.43011;0.432159;0.434597;0.437248;0.440237;0.443413;0.446703;0.450257;0.453813;0.457565;0.461269;0.465151;0.468844;0.472622;0.4763;0.479882;0.483357;0.486597;0.489844;0.492836;0.495761;0.49849;0.501181;0.503719;0.506178;0.508525;0.510709;0.512869;0.514785;0.51667;0.518397;0.519999;0.521465;0.522759;0.523962;0.524988;0.525925;0.52664;0.527305;0.527755;0.528038;0.528227;0.52822;0.528161;0.527886;0.527522;0.527051;0.526386;0.525628;0.524733;0.523742;0.522549;0.521287;0.519883;0.518369;0.516684;0.514911;0.51315;0.511232;0.509259;0.507196;0.505155;0.502882;0.500576;0.498278;0.495972;0.493662;0.491316;0.489076;0.486828;0.484626;0.482391;0.480185;0.47791;0.475786;0.4735;0.471287;0.469079;0.46683;0.464583;0.462265;0.460049;0.457749;0.45554;0.453249;0.451063;0.448914;0.446914;0.444863;0.442877;0.440972;0.439132;0.437329;0.435637;0.433966;0.432372;0.430968;0.429651;0.428498;0.427434;0.426584;0.425941;0.425641;0.42559;0.425893;0.426565;0.427689;0.429216;0.431383;0.433916;0.437047;0.440627;0.44489;0.449194;0.454328;0.459679;0.465365;0.471133;0.477219;0.483043;0.488888;0.49461;0.500338;0.505961;0.511698;0.517406;0.523193;0.528873;0.534119;0.538515;0.541698;0.543563;0.544191;0.543906;0.543153;0.542413;0.541946;0.542173;0.54303;0.544604;0.54656;0.548938;0.551091;0.553057;0.554604;0.555759;0.55647;0.556775;0.556759;0.556461;0.556113;0.55546;0.554703;0.553747;0.552714;0.551642;0.550668;0.54979;0.549084;0.548406;0.547723;0.54709;0.546202;0.545107;0.543996;0.542837;0.541908;0.541198;0.540802;0.540551;0.540565;0.540689;0.540816;0.540875;0.540913;0.540878;0.540814;0.540693;0.540487;0.540424;0.540408;0.540653;0.541064;0.541599;0.542572;0.54366;0.545168;0.547004;0.54904;0.551475;0.554302;0.557332;0.560467;0.563821;0.567333;0.570925;0.574627;0.57834;0.581993;0.585839;0.589464;0.593342;0.597028;0.600918;0.604829;0.608958;0.612987;0.617272;0.621402;0.625699;0.629814;0.634143;0.638191;0.642189;0.646078;0.649887;0.653435;0.657036;0.660584;0.664145;0.667661;0.671199;0.674467;0.677745;0.680595;0.683333;0.685928;0.688095;0.689987;0.691671;0.693099;0.69434;0.69518;0.695873;0.696156;0.69626;0.696304;0.696021;0.695626
0.0378099;0.0376253;0.0375901;0.0375543;0.0374694;0.0374518;0.0376255;0.0378267;0.0379899;0.0382342;0.0386412;0.0392321;0.0399622;0.040952;0.0422007;0.0436504;0.0454222;0.0474709;0.0497241;0.0522579;0.0548528;0.057712;0.0607893;0.0637706;0.0668997;0.0700503;0.073113;0.0762002;0.0790566;0.0818745;0.084671;0.0871854;0.0895734;0.0918504;0.0940114;0.0961783;0.098199;0.100172;0.102252;0.104236;0.106199;0.108158;0.109956;0.111751;0.113366;0.114769;0.116028;0.117047;0.117836;0.118391;0.118696;0.118777;0.118596;0.118172;0.117502;0.116592;0.115434;0.114054;0.11257;0.110889;0.109137;0.107405;0.105606;0.103907;0.102218;0.100614;0.0991487;0.0977383;0.0964518;0.0953096;0.0942457;0.0933125;0.0924958;0.091742;0.0911173;0.0905316;0.0900245;0.0895722;0.0891386;0.0887545;0.0883836;0.0880207;0.0876758;0.0873132;0.08696;0.0865827;0.0861616;0.085751;0.0852966;0.0848243;0.0843461;0.0838377;0.0833582;0.0828862;0.0824324;0.0820433;0.0816947;0.0813883;0.0811673;0.0810077;0.080956;0.0809669;0.0810941;0.0813096;0.0816548;0.0821126;0.0826881;0.0833982;0.0842611;0.0852349;0.0864091;0.0876667;0.0891453;0.0907726;0.0925082;0.0944721;0.0965142;0.0987028;0.101071;0.103422;0.105981;0.108604;0.111201;0.113954;0.116621;0.11934;0.122117;0.124742;0.127392;0.129937;0.132362;0.13477;0.136973;0.139175;0.141313;0.143337;0.14544;0.147513;0.149677;0.152102;0.154612;0.157563;0.160815;0.164345;0.168427;0.1728;0.177689;0.183132;0.188812;0.195208;0.20195;0.209009;0.216771;0.224522;0.232722;0.241181;0.24947;0.258134;0.266452;0.274727;0.282902;0.290465;0.297915;0.304795;0.311099;0.31706;0.322274;0.326975;0.331191;0.334669;0.337811;0.340352;0.342545;0.344425;0.34597;0.347262;0.34837;0.349257;0.349989;0.350576;0.35104;0.351398;0.351563;0.351624;0.351513;0.351285;0.350872;0.350346;0.349698;0.348906;0.348069;0.347112;0.346139;0.345071;0.343954;0.342835;0.341573;0.340355;0.338989;0.337641;0.3363;0.334876;0.333464;0.332042;0.330627;0.329207;0.327812;0.326491;0.325213;0.323952;0.322805;0.321734;0.320694;0.319799;0.318926;0.318178;0.317512;0.316884;0.316343;0.315866;0.315435;0.315088;0.314732;0.314379;0.314102;0.313796;0.313539;0.313271;0.313022;0.312716;0.312465;0.312178;0.311844;0.311493;0.311034;0.310566;0.310049;0.309408;0.30872;0.307883;0.307004;0.306006;0.304893;0.303704;0.302361;0.300955;0.299453;0.297777;0.296097;0.294273;0.292435;0.290564;0.288596;0.286694;0.28472;0.282779;0.280842;0.27889;0.277023;0.275111;0.273255;0.271469;0.269648;0.267945;0.266205;0.264538;0.262926;0.261314;0.259799;0.258303;0.256861;0.255482;0.254164;0.252939;0.251738;0.250677;0.24968;0.248768;0.248014;0.247341;0.246771;0.246301;0.245962;0.245762;0.2457;0.245862;0.246247;0.246968;0.247964;0.249336;0.251069;0.253122;0.255601;0.258207;0.261062;0.263899;0.266652;0.269296;0.271584;0.273643;0.275246;0.276517;0.277438;0.278029;0.278441;0.278708;0.278943;0.279228;0.279504;0.279863;0.280251;0.280658;0.281089;0.281515;0.281927;0.282368;0.282802;0.283311;0.283931;0.284674;0.285489;0.286397;0.28733;0.288237;0.289068;0.289751;0.29034;0.290756;0.291122;0.29141;0.291676;0.291955;0.292177;0.29246;0.292731;0.292949;0.293127;0.293205;0.293156;0.292914;0.292454;0.291742;0.290876;0.289791;0.288564;0.287242;0.285804;0.284397;0.282901;0.281449;0.279997;0.278611;0.277309;0.276037;0.274913;0.273842;0.27287;0.271995;0.2711;0.270288;0.269384;0.268484;0.267452;0.266362;0.265281;0.264052;0.262848;0.261563;0.26022;0.258907;0.257548;0.256322;0.255191;0.254221;0.25343;0.252897;0.252606;0.252599;0.252892;0.253472;0.254378;0.255633;0.257261;0.259292;0.261824;0.264676;0.268181;0.272176;0.27666;0.282051;0.288028;0.295095;0.302988;0.312153;0.32236;0.333363;0.345739;0.358343;0.372126;0.385975;0.400286;0.414802;0.428565;0.442225;0.4547;0.466838;0.477692;0.48784;0.497234;0.505326;0.512835;0.519117;0.524509;0.52878;0.531944;0.534079;0.535034;0.534958;0.533962;0.531963;0.529364;0.526176;0.522498;0.518643;0.514468;0.51037;0.50604;0.501729;0.497444;0.493092;0.4889;0.484589;0.480481;0.476295;0.472188;0.468074;0.463975;0.460027;0.455969;0.452126;0.4482;0.444457;0.440705;0.437084;0.433664;0.430263;0.427138;0.424138;0.421447;0.418988;0.416829;0.415059;0.41352;0.412357;0.411541;0.411125;0.41113;0.411433;0.412121;0.413166;0.414573;0.416417;0.418538;0.42102;0.42375;0.426831;0.430089;0.43347;0.437108;0.440668;0.444512;0.448264;0.452182;0.455991;0.459851;0.463554;0.467201;0.470819;0.47412;0.47744;0.480508;0.483564;0.486366;0.489114;0.491754;0.494242;0.496721;0.498965;0.501182;0.503162;0.505111;0.506903;0.508565;0.510029;0.511357;0.512567;0.513569;0.514527;0.515318;0.515879;0.516353;0.516643;0.516814;0.516837;0.516687;0.516473;0.516107;0.51566;0.515013;0.514216;0.513309;0.512323;0.511101;0.509853;0.508409;0.506824;0.505095;0.503313;0.50153;0.499577;0.497572;0.495449;0.493271;0.491002;0.488757;0.4864;0.484076;0.481751;0.479444;0.47716;0.474803;0.47259;0.470255;0.468024;0.465736;0.463486;0.461257;0.458967;0.456709;0.454437;0.452248;0.449996;0.447729;0.445409;0.443193;0.440969;0.438857;0.436663;0.434666;0.432615;0.430741;0.42877;0.426902;0.425143;0.423464;0.42182;0.420255;0.418835;0.417447;0.416339;0.415252;0.41447;0.413822;0.413504;0.413367;0.41374;0.414461;0.415546;0.417117;0.419175;0.421722;0.424882;0.428419;0.432617;0.437181;0.442214;0.447438;0.453149;0.458852;0.464857;0.470585;0.476588;0.482255;0.487977;0.493519;0.499258;0.505024;0.510918;0.516536;0.521691;0.526027;0.529183;0.531014;0.531513;0.530991;0.530146;0.529221;0.528638;0.528749;0.529543;0.530973;0.532888;0.535174;0.537434;0.539444;0.541098;0.542327;0.543119;0.543611;0.54366;0.543458;0.543179;0.54252;0.541711;0.54076;0.539746;0.538619;0.537642;0.536642;0.535812;0.53497;0.534244;0.533427;0.532496;0.531436;0.5303;0.529215;0.528297;0.527622;0.52722;0.527123;0.527088;0.527175;0.527299;0.52737;0.527405;0.527448;0.527332;0.527106;0.526975;0.526886;0.526883;0.527049;0.527484;0.528064;0.528925;0.530137;0.531652;0.533448;0.535595;0.538027;0.540774;0.543801;0.547088;0.550554;0.554109;0.557783;0.561502;0.565265;0.569024;0.572894;0.576615;0.580516;0.58434;0.588225;0.592167;0.596307;0.600333;0.604715;0.609046;0.613375;0.617672;0.621945;0.626012;0.630026;0.6339;0.637756;0.641462;0.645015;0.648713;0.652196;0.655778;0.659364;0.662784;0.66599;0.668952;0.671795;0.674445;0.676576;0.678611;0.680385;0.681788;0.682992;0.683963;0.684696;0.685158;0.685105;0.685088;0.684858;0.684685
0.0459453;0.045701;0.0456612;0.0456542;0.0455516;0.0455283;0.0457082;0.0459374;0.0461449;0.046449;0.0469377;0.0476134;0.0484621;0.0495825;0.0509744;0.0526283;0.0546286;0.056942;0.0594874;0.0623267;0.06523;0.068405;0.0718196;0.0751078;0.0785636;0.0820599;0.0854866;0.0889539;0.0921538;0.0952692;0.0984049;0.101228;0.103901;0.106453;0.10883;0.111231;0.113475;0.115654;0.117966;0.120166;0.122377;0.124569;0.126562;0.128574;0.130348;0.131891;0.133258;0.134364;0.13522;0.135817;0.136156;0.136231;0.136026;0.135544;0.134774;0.133752;0.132434;0.130847;0.12914;0.127198;0.125189;0.123177;0.121104;0.119155;0.117234;0.115391;0.113732;0.112135;0.110674;0.109387;0.108172;0.10713;0.106185;0.10533;0.104609;0.103934;0.103357;0.102841;0.102355;0.101926;0.10152;0.101133;0.100759;0.100357;0.0999723;0.0995765;0.0991299;0.0986917;0.098185;0.0976718;0.0971427;0.0965938;0.09604;0.0955253;0.0950007;0.0945615;0.094158;0.0938116;0.0935524;0.0933675;0.0932981;0.0933117;0.0934268;0.0936472;0.0940107;0.0945066;0.0951182;0.0958951;0.0968372;0.0978827;0.0991631;0.10053;0.102138;0.103899;0.105784;0.107906;0.110142;0.112512;0.115101;0.117691;0.120485;0.123357;0.126223;0.129269;0.132216;0.135227;0.138298;0.141207;0.144162;0.146987;0.149659;0.152319;0.154767;0.15718;0.159543;0.161756;0.164049;0.166312;0.168701;0.171353;0.174116;0.177316;0.180844;0.184626;0.188983;0.19361;0.198801;0.204538;0.210554;0.217286;0.224438;0.231817;0.240017;0.248184;0.256969;0.265901;0.27463;0.283745;0.292517;0.301209;0.309813;0.317741;0.325594;0.332839;0.339476;0.345765;0.351229;0.356206;0.360616;0.364309;0.367606;0.370277;0.37257;0.374548;0.376146;0.377521;0.378694;0.379635;0.380466;0.381106;0.38162;0.382042;0.382259;0.382395;0.382328;0.382156;0.381806;0.38134;0.38073;0.379988;0.379192;0.378224;0.37725;0.376151;0.375049;0.373855;0.372557;0.371276;0.36988;0.368461;0.367047;0.365609;0.364149;0.362672;0.361134;0.359804;0.358393;0.357052;0.355778;0.354526;0.353412;0.352305;0.351326;0.350487;0.349623;0.348872;0.348182;0.347565;0.347014;0.346508;0.34605;0.345687;0.345297;0.344919;0.344617;0.344294;0.344008;0.343713;0.343415;0.343109;0.3428;0.342503;0.342146;0.341734;0.34129;0.340758;0.340177;0.339508;0.338756;0.337895;0.336928;0.335881;0.334727;0.333496;0.332085;0.330603;0.329013;0.327266;0.325504;0.323599;0.321669;0.319708;0.317649;0.315659;0.313601;0.311578;0.309564;0.307523;0.305557;0.303575;0.30166;0.299778;0.297868;0.296099;0.294288;0.292546;0.290849;0.28919;0.287615;0.286053;0.284585;0.283178;0.281805;0.280562;0.279356;0.278265;0.277288;0.276403;0.275695;0.275088;0.274612;0.274244;0.273989;0.273873;0.273972;0.274288;0.274838;0.275792;0.277015;0.278669;0.280724;0.283103;0.285965;0.288951;0.292194;0.295375;0.298488;0.301489;0.304099;0.306523;0.308487;0.310088;0.311353;0.312217;0.312882;0.313377;0.313797;0.31424;0.314685;0.315162;0.315687;0.316147;0.316553;0.316909;0.317202;0.317425;0.317647;0.317858;0.318191;0.318684;0.319328;0.320102;0.320951;0.321827;0.322636;0.323341;0.323952;0.32444;0.32481;0.325129;0.325367;0.32555;0.325655;0.325749;0.325811;0.325883;0.325877;0.325795;0.3256;0.325216;0.324672;0.323865;0.322904;0.321771;0.320488;0.319113;0.317628;0.316137;0.314597;0.313092;0.311567;0.310138;0.308762;0.307431;0.306269;0.305152;0.30411;0.303181;0.302229;0.301375;0.300385;0.299437;0.298369;0.297184;0.296044;0.294749;0.29345;0.29209;0.290734;0.289362;0.287917;0.286594;0.285344;0.284322;0.28348;0.28287;0.282525;0.282515;0.282773;0.283375;0.284284;0.285519;0.287159;0.289248;0.291917;0.294944;0.298632;0.302752;0.307366;0.312877;0.318995;0.326249;0.334383;0.34385;0.354406;0.365763;0.378455;0.391404;0.405503;0.419744;0.434432;0.449323;0.463421;0.477372;0.490043;0.502318;0.51335;0.523628;0.533204;0.541445;0.54905;0.555424;0.560867;0.56511;0.568346;0.570559;0.571573;0.571632;0.570792;0.568948;0.566459;0.563424;0.55989;0.556142;0.552082;0.548054;0.543776;0.539573;0.535401;0.531103;0.526994;0.522804;0.518834;0.514653;0.510649;0.506649;0.502672;0.498711;0.49473;0.490928;0.487024;0.483269;0.479546;0.475903;0.47246;0.469069;0.465937;0.462885;0.460195;0.457685;0.455515;0.453658;0.452125;0.450999;0.450236;0.449834;0.449844;0.450189;0.450884;0.451965;0.453418;0.455345;0.457563;0.460207;0.462993;0.466273;0.469628;0.47321;0.477036;0.480785;0.484809;0.48878;0.492873;0.496858;0.500881;0.504689;0.508407;0.512037;0.515412;0.518651;0.52165;0.524615;0.527263;0.529886;0.532401;0.534745;0.537076;0.53916;0.541256;0.543121;0.544868;0.546513;0.548004;0.549419;0.550616;0.55176;0.552725;0.553611;0.554312;0.554893;0.555327;0.555666;0.555769;0.55577;0.55563;0.555457;0.555068;0.554614;0.554034;0.553339;0.552373;0.551398;0.550318;0.549111;0.547754;0.546336;0.544794;0.54317;0.541554;0.539812;0.538007;0.536106;0.534172;0.532032;0.52989;0.527684;0.525528;0.523331;0.521156;0.519035;0.516834;0.514784;0.512747;0.510813;0.508585;0.506439;0.50424;0.50208;0.499862;0.497589;0.495397;0.493131;0.490932;0.488624;0.486385;0.484077;0.481918;0.47968;0.477631;0.475552;0.473571;0.471577;0.469712;0.467924;0.466132;0.46449;0.462945;0.461484;0.460156;0.459012;0.457945;0.457205;0.456568;0.456314;0.456315;0.456705;0.457512;0.458745;0.460398;0.462671;0.465484;0.46883;0.472674;0.477193;0.481934;0.487275;0.492742;0.498707;0.504564;0.510744;0.516633;0.522655;0.528377;0.534229;0.539864;0.545662;0.551298;0.55699;0.562545;0.567568;0.571832;0.574986;0.576932;0.577714;0.577647;0.577125;0.576693;0.576653;0.577188;0.578521;0.580397;0.582579;0.585111;0.587288;0.589227;0.590479;0.591211;0.591471;0.591368;0.591264;0.590781;0.590254;0.589514;0.588688;0.587749;0.586819;0.585976;0.585297;0.584619;0.584202;0.583833;0.583565;0.583038;0.582293;0.581184;0.579904;0.578547;0.577303;0.576347;0.57579;0.575462;0.575323;0.575315;0.57539;0.57536;0.575485;0.57539;0.575216;0.57504;0.574947;0.574762;0.574727;0.574879;0.575319;0.575868;0.576676;0.577684;0.579126;0.580681;0.582688;0.585028;0.587558;0.5904;0.593474;0.596633;0.600105;0.603573;0.607054;0.610666;0.614194;0.617724;0.621401;0.625002;0.628553;0.632318;0.636039;0.639991;0.643872;0.648147;0.652287;0.656426;0.660476;0.664681;0.668714;0.672641;0.676439;0.680264;0.683794;0.687519;0.690996;0.694585;0.69808;0.701327;0.704621;0.707581;0.710579;0.713297;0.715852;0.717947;0.719666;0.721488;0.722997;0.724287;0.724997;0.725516;0.726021;0.726144;0.726042;0.725615;0.725253
0.0444276;0.0442878;0.0441798;0.0440903;0.0440586;0.0440596;0.0441308;0.044241;0.0444593;0.0448148;0.0452893;0.0459923;0.0468652;0.0480408;0.049523;0.051251;0.0533705;0.0557381;0.0583386;0.0612837;0.064343;0.0676284;0.0710915;0.0745185;0.0781924;0.0818365;0.0853044;0.0889254;0.0923653;0.0956699;0.0988466;0.101758;0.104631;0.107322;0.109785;0.112252;0.114625;0.116942;0.119332;0.121604;0.12394;0.126265;0.128371;0.130459;0.132349;0.134;0.13547;0.136624;0.137562;0.138214;0.138577;0.138685;0.138508;0.138055;0.137269;0.136237;0.134912;0.133289;0.131534;0.129535;0.127469;0.125397;0.123234;0.121215;0.119233;0.117343;0.115619;0.113969;0.112483;0.111167;0.109929;0.108871;0.107926;0.107075;0.106346;0.105654;0.105064;0.10453;0.104032;0.103582;0.103171;0.102757;0.102366;0.101961;0.101556;0.101134;0.100668;0.1002;0.0997012;0.0991641;0.0986177;0.0980709;0.0975101;0.0969824;0.0964765;0.0960374;0.0956429;0.095318;0.0950831;0.0949226;0.0948594;0.0949019;0.095057;0.0953258;0.0957243;0.096253;0.0968991;0.0977343;0.0987127;0.0998349;0.101161;0.102604;0.104291;0.106156;0.108117;0.110348;0.112662;0.115146;0.117824;0.120518;0.123399;0.126353;0.129297;0.132403;0.135408;0.138472;0.14159;0.144525;0.147539;0.15042;0.153171;0.1559;0.158439;0.160949;0.163441;0.16577;0.168181;0.17055;0.172994;0.175721;0.178552;0.181859;0.185503;0.189463;0.19397;0.198803;0.204152;0.210077;0.216238;0.22316;0.23036;0.238005;0.246413;0.254753;0.263719;0.272851;0.28174;0.29102;0.299925;0.308739;0.317468;0.325503;0.333453;0.340743;0.347425;0.353737;0.359284;0.364293;0.368762;0.372456;0.375811;0.378542;0.380907;0.382946;0.384562;0.385998;0.387184;0.388149;0.388951;0.389576;0.39009;0.390445;0.390672;0.390735;0.390661;0.39039;0.389979;0.389453;0.388756;0.387972;0.387056;0.386038;0.385002;0.383863;0.382699;0.381476;0.380162;0.378882;0.377512;0.376112;0.374795;0.373361;0.371978;0.370556;0.369144;0.367843;0.366455;0.365171;0.363923;0.362691;0.361578;0.360483;0.359424;0.35849;0.35762;0.356863;0.356162;0.355505;0.354915;0.354395;0.353915;0.353488;0.353089;0.352725;0.352345;0.352014;0.351684;0.351369;0.35108;0.350788;0.350485;0.350181;0.349813;0.349412;0.348953;0.34843;0.347841;0.347154;0.346387;0.34551;0.344553;0.343487;0.342286;0.341018;0.339591;0.338115;0.33651;0.334751;0.332972;0.331056;0.329097;0.327123;0.32506;0.323056;0.320964;0.318883;0.316883;0.314819;0.312846;0.310841;0.308871;0.306969;0.305061;0.303245;0.301424;0.299664;0.297947;0.296265;0.294664;0.293073;0.291565;0.290134;0.288746;0.287473;0.286238;0.285118;0.284145;0.283235;0.282516;0.281899;0.28139;0.28104;0.280793;0.280679;0.280768;0.281064;0.281607;0.282531;0.283746;0.285403;0.287449;0.289809;0.292677;0.295674;0.298928;0.302187;0.305359;0.3084;0.311077;0.313564;0.315577;0.317239;0.318532;0.319418;0.320098;0.320589;0.321007;0.32146;0.321911;0.322383;0.322864;0.323355;0.323807;0.324209;0.32452;0.324759;0.32497;0.325208;0.325555;0.326071;0.326708;0.327511;0.328412;0.329306;0.330169;0.330898;0.331537;0.332046;0.332477;0.332819;0.333071;0.333278;0.333443;0.33356;0.333666;0.333753;0.333786;0.33376;0.333559;0.333197;0.332624;0.331816;0.330865;0.329665;0.328371;0.326985;0.325451;0.323932;0.322329;0.32077;0.319244;0.317747;0.316338;0.314965;0.313763;0.312594;0.311549;0.31056;0.309608;0.308691;0.3077;0.306678;0.305564;0.304378;0.303195;0.301858;0.30053;0.299105;0.297675;0.296261;0.294844;0.293479;0.292231;0.291244;0.290397;0.289813;0.289513;0.289497;0.289763;0.290402;0.291313;0.292534;0.294172;0.296186;0.2988;0.301882;0.305674;0.310005;0.314846;0.320554;0.326815;0.334264;0.342544;0.352128;0.362829;0.374345;0.387156;0.400282;0.414569;0.428924;0.44381;0.458827;0.473145;0.487352;0.500313;0.512833;0.524082;0.534534;0.544238;0.552622;0.560423;0.566885;0.572507;0.57692;0.580248;0.582546;0.583639;0.58365;0.582749;0.580922;0.578347;0.575236;0.571585;0.567722;0.563514;0.559402;0.555072;0.550746;0.54644;0.542103;0.537871;0.533479;0.529396;0.525127;0.521;0.516834;0.512707;0.508664;0.504531;0.500645;0.496629;0.492791;0.488972;0.485294;0.481781;0.47826;0.475097;0.472005;0.469248;0.466732;0.464513;0.462585;0.460995;0.459832;0.459066;0.458605;0.458551;0.458879;0.459561;0.460688;0.462204;0.4641;0.466322;0.468976;0.471877;0.475066;0.478448;0.482075;0.485806;0.489602;0.493652;0.497608;0.501693;0.505672;0.509657;0.51349;0.517238;0.520951;0.524323;0.527664;0.53075;0.533773;0.536493;0.539184;0.54176;0.544195;0.546552;0.548738;0.550858;0.552785;0.554631;0.556368;0.557999;0.559472;0.560812;0.561999;0.563092;0.563997;0.564747;0.56535;0.56581;0.565966;0.566192;0.566176;0.5661;0.565959;0.565616;0.56514;0.56453;0.563862;0.56296;0.561956;0.560855;0.559626;0.55821;0.556646;0.555115;0.553412;0.551721;0.549812;0.547962;0.545938;0.543855;0.541634;0.539408;0.537129;0.534821;0.532512;0.530221;0.52799;0.52575;0.523624;0.521382;0.519256;0.517063;0.514845;0.512635;0.510368;0.508124;0.505857;0.503651;0.501426;0.499185;0.496893;0.49456;0.492232;0.490042;0.487785;0.485715;0.483628;0.481619;0.479717;0.477826;0.475991;0.474199;0.472551;0.470936;0.469511;0.468132;0.466937;0.46581;0.465031;0.464417;0.463997;0.463837;0.464246;0.465053;0.466321;0.468;0.470196;0.473007;0.476381;0.480193;0.484652;0.489398;0.494883;0.500458;0.506429;0.512436;0.518761;0.524768;0.530908;0.536762;0.542749;0.54848;0.554352;0.560191;0.566106;0.571817;0.57705;0.581451;0.584834;0.586945;0.587753;0.587735;0.587142;0.586566;0.586514;0.587016;0.588162;0.589984;0.592255;0.594776;0.597092;0.599024;0.600465;0.601347;0.601728;0.60159;0.601488;0.601135;0.600538;0.599842;0.599023;0.597994;0.597083;0.596055;0.595303;0.594619;0.594099;0.593648;0.593195;0.592783;0.592039;0.590886;0.589635;0.588318;0.587144;0.586272;0.585659;0.585178;0.585109;0.585203;0.585235;0.585313;0.585289;0.585346;0.585278;0.585008;0.584912;0.584761;0.584833;0.584983;0.585337;0.585873;0.586828;0.587949;0.589327;0.590912;0.592962;0.595423;0.598122;0.600997;0.604102;0.607429;0.611071;0.614554;0.618106;0.621855;0.6255;0.629305;0.63294;0.636667;0.640326;0.6442;0.648259;0.652365;0.656363;0.660673;0.664809;0.669173;0.673382;0.67763;0.681631;0.685841;0.68982;0.693526;0.697185;0.700841;0.704338;0.708281;0.711718;0.715256;0.71855;0.721781;0.724843;0.727553;0.730197;0.732434;0.734233;0.736054;0.737475;0.738554;0.739375;0.739952;0.740411;0.740695;0.740424;0.740354;0.739941
0.033803;0.0336572;0.0335447;0.0334489;0.0333948;0.033372;0.0334157;0.0335024;0.033638;0.0339069;0.0342644;0.0348364;0.0355483;0.0364897;0.0376974;0.0390919;0.0408362;0.0427709;0.0449182;0.0473824;0.0498929;0.0526415;0.055526;0.0584049;0.0614802;0.064544;0.0674815;0.0705035;0.0733915;0.0761849;0.078892;0.0813657;0.0837992;0.0860993;0.0881883;0.0903059;0.0923594;0.0943684;0.0964375;0.0984131;0.100461;0.102489;0.104337;0.106163;0.107816;0.109267;0.110567;0.111588;0.112404;0.112992;0.113322;0.113438;0.113289;0.112889;0.112208;0.111319;0.110135;0.108728;0.107204;0.105451;0.103652;0.101839;0.099974;0.098211;0.0964935;0.0948163;0.093331;0.0918851;0.0906026;0.0894447;0.0883623;0.0874407;0.086617;0.085867;0.0852295;0.0846475;0.0841303;0.0836667;0.0832237;0.082835;0.0824748;0.0821209;0.0817718;0.0814182;0.0810524;0.080691;0.0802796;0.0798699;0.0794182;0.0789511;0.0784632;0.0779605;0.0774701;0.0770032;0.0765344;0.0761538;0.0757864;0.0754875;0.0752553;0.0750996;0.0750122;0.0750138;0.075106;0.0752917;0.0755964;0.0760201;0.0765414;0.0772022;0.0780058;0.0789273;0.0800402;0.0812515;0.0826504;0.0842101;0.0858746;0.0877649;0.0897324;0.091846;0.0941311;0.0964351;0.0989017;0.101443;0.103981;0.106654;0.109261;0.111914;0.114627;0.117172;0.119801;0.122302;0.124702;0.127077;0.129296;0.131497;0.133691;0.135735;0.137857;0.13991;0.142003;0.144319;0.146716;0.149534;0.152639;0.156049;0.159921;0.164106;0.168742;0.173887;0.179259;0.185332;0.191773;0.198519;0.205985;0.21343;0.221445;0.229564;0.237626;0.246033;0.254156;0.262194;0.270198;0.277581;0.28487;0.29159;0.297758;0.30359;0.308661;0.313297;0.317424;0.32087;0.323993;0.326565;0.328775;0.330702;0.332232;0.333601;0.334658;0.335574;0.336331;0.336942;0.337437;0.337775;0.338006;0.338092;0.338022;0.337799;0.337454;0.336988;0.336378;0.335699;0.334954;0.334107;0.333251;0.332338;0.33139;0.330427;0.329347;0.328289;0.327154;0.325995;0.324893;0.323636;0.322404;0.32108;0.31974;0.318437;0.317055;0.315778;0.314524;0.313262;0.312142;0.311025;0.310021;0.309061;0.308188;0.307432;0.306719;0.306087;0.305497;0.304995;0.304533;0.304121;0.303761;0.303416;0.30307;0.30279;0.302502;0.302231;0.302017;0.301769;0.30153;0.301282;0.300998;0.300678;0.300298;0.299911;0.299413;0.298811;0.298167;0.297421;0.296559;0.295632;0.294554;0.293432;0.29215;0.290764;0.289315;0.287701;0.286069;0.284324;0.282533;0.280724;0.278832;0.277012;0.275118;0.273222;0.271382;0.26948;0.267682;0.265852;0.264042;0.262318;0.260565;0.25892;0.257259;0.255646;0.254117;0.252567;0.251116;0.24968;0.248298;0.246996;0.245724;0.244563;0.243433;0.242413;0.241499;0.240677;0.23998;0.239401;0.238925;0.238573;0.238305;0.23815;0.238183;0.238401;0.23885;0.239644;0.240707;0.242129;0.243939;0.246023;0.248565;0.251244;0.254169;0.25708;0.259914;0.262662;0.265056;0.267255;0.26899;0.270403;0.271472;0.2722;0.27274;0.273118;0.273463;0.273794;0.274138;0.274527;0.274944;0.275339;0.275738;0.276088;0.276378;0.276633;0.276914;0.277217;0.277587;0.278146;0.278799;0.279584;0.280466;0.281285;0.282079;0.282755;0.283317;0.283746;0.284138;0.284408;0.284622;0.284821;0.284973;0.285123;0.285262;0.285387;0.285459;0.285459;0.285321;0.284995;0.284489;0.283758;0.282873;0.281792;0.280574;0.279256;0.277841;0.276433;0.274961;0.273536;0.272111;0.270717;0.269436;0.268171;0.267017;0.265939;0.264976;0.264085;0.263192;0.262359;0.261437;0.26046;0.259459;0.25839;0.257264;0.256063;0.254865;0.253546;0.252223;0.250866;0.249531;0.248301;0.247162;0.246228;0.245448;0.244884;0.244607;0.244546;0.24472;0.24524;0.246005;0.247095;0.248531;0.250254;0.252451;0.255043;0.258308;0.262078;0.266397;0.271532;0.277113;0.283778;0.291175;0.29972;0.309293;0.31962;0.331197;0.343117;0.356089;0.369093;0.382635;0.39639;0.409482;0.422545;0.434498;0.446061;0.456527;0.466195;0.47518;0.482991;0.490221;0.496236;0.501438;0.505587;0.508619;0.510685;0.511601;0.51157;0.510678;0.508827;0.506362;0.503369;0.499937;0.496263;0.492322;0.488485;0.484361;0.480324;0.476282;0.472245;0.468291;0.464284;0.460445;0.456473;0.452698;0.448827;0.445001;0.441359;0.437559;0.433934;0.430232;0.426732;0.423224;0.419826;0.416615;0.413447;0.410536;0.407735;0.405277;0.402976;0.400988;0.399312;0.397934;0.396951;0.396347;0.396042;0.396069;0.39651;0.397292;0.398471;0.399953;0.401886;0.404083;0.406649;0.409435;0.412564;0.415842;0.419304;0.422883;0.426527;0.430395;0.434138;0.438066;0.441861;0.445694;0.44936;0.452979;0.456512;0.459768;0.463005;0.465948;0.468811;0.471573;0.47421;0.476647;0.479054;0.481365;0.483446;0.485586;0.48754;0.489354;0.490993;0.492626;0.494101;0.495396;0.496609;0.497656;0.498585;0.49933;0.499978;0.500461;0.50083;0.501073;0.501108;0.501086;0.500929;0.500665;0.500195;0.499644;0.49904;0.498189;0.497261;0.4962;0.495012;0.493703;0.492262;0.490701;0.489057;0.487365;0.485573;0.483758;0.481784;0.479804;0.477628;0.475504;0.47325;0.471027;0.468815;0.46659;0.464481;0.462223;0.460135;0.458071;0.455954;0.453801;0.451714;0.449583;0.447495;0.445336;0.443208;0.441069;0.438855;0.436753;0.43453;0.432396;0.430259;0.428205;0.426072;0.424175;0.422192;0.4203;0.418493;0.416721;0.415012;0.413354;0.411722;0.410219;0.408911;0.407648;0.406478;0.40547;0.404742;0.404091;0.403793;0.403772;0.404079;0.404777;0.405958;0.40754;0.409595;0.412115;0.415208;0.41878;0.422924;0.427398;0.432377;0.437445;0.442971;0.448603;0.454452;0.46003;0.465766;0.47115;0.476704;0.482089;0.487659;0.493163;0.498642;0.503954;0.508954;0.513092;0.516088;0.517958;0.51857;0.518282;0.517608;0.516951;0.516674;0.516984;0.517992;0.519588;0.521637;0.523911;0.525968;0.527867;0.52928;0.530218;0.530768;0.530892;0.53073;0.530407;0.530069;0.529393;0.528633;0.527696;0.526798;0.525762;0.524904;0.524111;0.523443;0.522939;0.522392;0.521723;0.520949;0.519889;0.518714;0.517496;0.516431;0.515561;0.515043;0.514724;0.514634;0.51458;0.514713;0.514709;0.514679;0.514544;0.514419;0.514251;0.51407;0.513875;0.513851;0.513883;0.514234;0.514804;0.515501;0.516469;0.517774;0.519356;0.521252;0.523471;0.526015;0.528734;0.531713;0.534942;0.538111;0.541481;0.544875;0.548475;0.551872;0.555458;0.558996;0.562608;0.566082;0.569826;0.573436;0.577397;0.581322;0.585405;0.589402;0.593623;0.597589;0.601682;0.605721;0.609414;0.613094;0.616799;0.620317;0.623868;0.627354;0.630769;0.634236;0.637563;0.640717;0.643863;0.646784;0.649474;0.65193;0.654055;0.656114;0.657474;0.658843;0.659884;0.66086;0.661442;0.661888;0.661892;0.661795;0.661506;0.661099
0.0409112;0.0407533;0.0406416;0.0405591;0.0405231;0.0405143;0.0405792;0.0407094;0.0409082;0.0412514;0.0417263;0.0424212;0.0432988;0.0444677;0.045934;0.0476686;0.0497798;0.0521673;0.054793;0.0577912;0.0608578;0.0641623;0.0676621;0.0711126;0.0748152;0.0784605;0.0819441;0.0856015;0.0890063;0.0922695;0.0954514;0.0983196;0.101165;0.103806;0.106222;0.108676;0.111018;0.113326;0.115703;0.117969;0.120305;0.122622;0.124745;0.126842;0.128736;0.130411;0.131889;0.133076;0.134021;0.13471;0.135098;0.13522;0.135069;0.134611;0.133853;0.132827;0.131493;0.129867;0.128093;0.126079;0.124003;0.121933;0.119778;0.117768;0.115798;0.113873;0.112168;0.11052;0.109044;0.10771;0.10647;0.10541;0.104436;0.103582;0.102835;0.102159;0.10154;0.101028;0.100513;0.100071;0.0996566;0.0992387;0.09885;0.0984372;0.0980282;0.0976165;0.0971619;0.0966904;0.0961786;0.0956458;0.09513;0.0945692;0.0940239;0.0934952;0.0930062;0.0925715;0.0921863;0.0918764;0.0916446;0.0914868;0.0914411;0.091488;0.0916512;0.0919271;0.0923331;0.0928829;0.0935359;0.0943888;0.0953709;0.0965049;0.0978518;0.0993071;0.100999;0.102855;0.10484;0.107075;0.10941;0.111891;0.114592;0.117276;0.120171;0.123143;0.126098;0.1292;0.132222;0.135306;0.138438;0.141385;0.144413;0.147273;0.150017;0.152762;0.155308;0.15783;0.160333;0.162692;0.165151;0.167545;0.170072;0.172834;0.175734;0.179108;0.182823;0.186881;0.191531;0.196503;0.202036;0.208139;0.214478;0.221644;0.229092;0.236991;0.245621;0.254239;0.263463;0.272883;0.282008;0.291563;0.300695;0.30972;0.318624;0.326812;0.334915;0.342318;0.3491;0.355459;0.361052;0.366071;0.370516;0.374197;0.377474;0.380158;0.382425;0.384399;0.38596;0.387318;0.388373;0.389261;0.390006;0.390569;0.391013;0.391306;0.391462;0.391436;0.391299;0.390944;0.390458;0.389812;0.389066;0.388166;0.387206;0.386139;0.385051;0.38387;0.382662;0.381428;0.380075;0.378778;0.377341;0.375884;0.37447;0.372966;0.371471;0.369882;0.368324;0.366838;0.365289;0.363867;0.362451;0.361084;0.359845;0.358631;0.357506;0.356486;0.355587;0.354758;0.353981;0.353287;0.352675;0.352127;0.351629;0.351185;0.350754;0.350348;0.349964;0.349606;0.349281;0.348902;0.348627;0.34827;0.347963;0.347634;0.347227;0.346828;0.346325;0.345753;0.345166;0.344421;0.343637;0.342724;0.341676;0.340609;0.339341;0.33805;0.33664;0.335065;0.333424;0.331607;0.32978;0.327846;0.325823;0.323818;0.321702;0.319652;0.317524;0.315433;0.313365;0.311281;0.309273;0.307232;0.305235;0.303296;0.301342;0.299494;0.297625;0.29583;0.294078;0.292349;0.290718;0.289079;0.287539;0.286075;0.284646;0.283357;0.282063;0.280921;0.279887;0.278941;0.278213;0.277539;0.277;0.276632;0.276302;0.276188;0.276229;0.276494;0.277087;0.278003;0.279244;0.280964;0.283063;0.285544;0.288493;0.291585;0.29498;0.298341;0.301633;0.30482;0.307632;0.310255;0.312401;0.314163;0.315548;0.316516;0.317248;0.317805;0.318258;0.318721;0.319166;0.319668;0.320193;0.320699;0.321168;0.321563;0.321843;0.322036;0.322202;0.322399;0.322714;0.32321;0.323861;0.324697;0.32562;0.326572;0.32749;0.328264;0.32897;0.329526;0.329992;0.330371;0.330627;0.330823;0.330969;0.331047;0.331128;0.331211;0.331218;0.331177;0.330986;0.330589;0.330042;0.32919;0.328225;0.327019;0.325696;0.324257;0.322713;0.321183;0.319557;0.317976;0.316374;0.314843;0.313422;0.312011;0.310773;0.30959;0.30849;0.307473;0.306464;0.305517;0.304481;0.303405;0.302283;0.301068;0.299823;0.29847;0.297129;0.295691;0.294241;0.292747;0.291252;0.28994;0.288706;0.28768;0.286825;0.286228;0.285962;0.285946;0.286256;0.286897;0.287888;0.289221;0.290984;0.293155;0.295867;0.299031;0.30294;0.307404;0.31245;0.318482;0.32507;0.332915;0.341583;0.35158;0.362755;0.37478;0.388099;0.40177;0.416584;0.431413;0.446689;0.462122;0.476746;0.49116;0.504293;0.516946;0.528254;0.538744;0.54842;0.55668;0.564291;0.570648;0.576074;0.580266;0.583431;0.585519;0.586319;0.586193;0.585132;0.583121;0.580423;0.577168;0.573425;0.56948;0.565162;0.560899;0.556452;0.552072;0.547647;0.543152;0.538876;0.534429;0.53022;0.525887;0.521722;0.517479;0.513257;0.509231;0.505046;0.501041;0.496958;0.49308;0.489155;0.48537;0.481779;0.478203;0.474917;0.471762;0.468954;0.466373;0.464094;0.462179;0.460576;0.459412;0.458628;0.458183;0.458147;0.458447;0.459161;0.460281;0.461793;0.463772;0.466049;0.468753;0.47165;0.474948;0.478428;0.482053;0.485883;0.489788;0.493868;0.497834;0.501978;0.505968;0.509982;0.513899;0.517642;0.521248;0.524674;0.527972;0.530971;0.533953;0.536684;0.539333;0.541869;0.544294;0.546596;0.548728;0.550815;0.552685;0.554535;0.55618;0.557788;0.559162;0.560438;0.561566;0.56258;0.56342;0.564125;0.5647;0.565139;0.565254;0.56535;0.565314;0.565235;0.564962;0.56457;0.564104;0.563385;0.562663;0.56177;0.560739;0.559503;0.558215;0.556792;0.555209;0.553558;0.551883;0.550125;0.54829;0.546409;0.544394;0.542371;0.540114;0.537905;0.535611;0.533263;0.531022;0.528737;0.526584;0.524343;0.522217;0.520035;0.517879;0.515628;0.513505;0.51119;0.508981;0.506769;0.504667;0.502371;0.499961;0.497644;0.49526;0.492949;0.490582;0.488336;0.486057;0.483938;0.481729;0.479659;0.477645;0.475644;0.473792;0.471994;0.470274;0.468632;0.467167;0.465785;0.464579;0.463511;0.462674;0.462075;0.461769;0.461841;0.462004;0.462889;0.464194;0.466002;0.468288;0.471102;0.474657;0.478582;0.483212;0.488164;0.493731;0.499419;0.505669;0.511767;0.51821;0.524321;0.530541;0.536566;0.54264;0.548522;0.554499;0.560368;0.566343;0.572084;0.577319;0.581782;0.585085;0.587188;0.588147;0.588174;0.58785;0.587623;0.587727;0.588484;0.589944;0.592015;0.594415;0.597031;0.599323;0.601211;0.602376;0.602924;0.603126;0.602865;0.602498;0.602057;0.601547;0.600799;0.599999;0.599005;0.598075;0.59719;0.596559;0.595941;0.595589;0.595424;0.59519;0.594748;0.594012;0.592932;0.59154;0.590056;0.588756;0.587664;0.586943;0.586501;0.586425;0.586448;0.586523;0.586577;0.586575;0.586485;0.586378;0.586257;0.58611;0.586002;0.585982;0.586175;0.586571;0.587047;0.588059;0.589064;0.590492;0.59218;0.594199;0.596607;0.599159;0.602112;0.605197;0.608534;0.611936;0.615579;0.619168;0.622785;0.626436;0.630141;0.63373;0.637764;0.64117;0.645161;0.648928;0.653065;0.657011;0.661284;0.66548;0.669918;0.674095;0.678326;0.682373;0.686441;0.690291;0.694148;0.697784;0.701615;0.705124;0.70894;0.712321;0.715692;0.718917;0.722135;0.725067;0.72776;0.730278;0.732701;0.734729;0.736361;0.737744;0.738772;0.739533;0.740221;0.740705;0.740686;0.74045;0.740256;0.739964
0.0340631;0.0338992;0.0337928;0.0337681;0.0337409;0.0337453;0.0338205;0.033978;0.0341896;0.0345038;0.0349503;0.035635;0.0364549;0.0375702;0.0389659;0.0405674;0.0425342;0.0447293;0.0471434;0.0498969;0.0526957;0.0557189;0.0589038;0.0620486;0.0654352;0.0687265;0.0718896;0.0751997;0.0782906;0.0812634;0.0841607;0.0868159;0.0894149;0.0918312;0.0940419;0.0962973;0.0984567;0.100548;0.102699;0.104766;0.106891;0.108975;0.110879;0.112768;0.114449;0.115929;0.117221;0.118235;0.119027;0.119586;0.119869;0.119923;0.119719;0.11926;0.118524;0.117553;0.116326;0.114821;0.113221;0.11139;0.109525;0.107654;0.105696;0.103874;0.102078;0.10035;0.0987971;0.0972978;0.0959534;0.0947556;0.0936283;0.0926597;0.0917795;0.0909969;0.0903092;0.0896927;0.0891298;0.0886551;0.0881853;0.0877954;0.0874049;0.0870514;0.0867005;0.0863417;0.0859913;0.0856247;0.0852302;0.084807;0.0843594;0.0838685;0.0834078;0.0828879;0.0823895;0.0819096;0.0814709;0.0810545;0.0807078;0.080417;0.0802079;0.0800664;0.0800331;0.0800714;0.0802314;0.0804779;0.0808544;0.0813437;0.0819466;0.0827008;0.0836115;0.0846336;0.0858822;0.0872014;0.0887448;0.0904368;0.0922402;0.0942776;0.0964075;0.0986663;0.101122;0.103574;0.106219;0.108936;0.111611;0.114459;0.117221;0.120051;0.122896;0.125624;0.128387;0.131039;0.133564;0.136088;0.13841;0.140741;0.143026;0.145161;0.147404;0.149618;0.151933;0.154518;0.157187;0.160296;0.163744;0.167465;0.17174;0.176287;0.18139;0.187019;0.192869;0.199427;0.206365;0.213625;0.221548;0.229385;0.237904;0.246526;0.254947;0.263723;0.272168;0.280489;0.28876;0.296342;0.303873;0.310752;0.317101;0.323067;0.328278;0.33298;0.337171;0.3406;0.343705;0.346274;0.348434;0.350346;0.351822;0.35314;0.354195;0.35512;0.355828;0.356417;0.356852;0.357185;0.357343;0.357387;0.357281;0.357013;0.356597;0.356042;0.355358;0.354552;0.353688;0.35271;0.351754;0.350677;0.34962;0.348515;0.347338;0.346186;0.34488;0.343624;0.342356;0.341051;0.339701;0.338386;0.336981;0.335635;0.334252;0.332886;0.331615;0.330259;0.329107;0.327886;0.326773;0.325809;0.324803;0.32399;0.32315;0.322401;0.321812;0.321211;0.320703;0.320176;0.319709;0.31929;0.318857;0.318548;0.318183;0.317847;0.317567;0.317226;0.316932;0.316601;0.316238;0.315862;0.315403;0.314901;0.314306;0.313639;0.31293;0.312061;0.311144;0.310125;0.308949;0.307749;0.306373;0.304915;0.303373;0.301673;0.299979;0.298141;0.296262;0.294393;0.292397;0.290505;0.288515;0.286527;0.28461;0.282629;0.280766;0.278852;0.276981;0.275202;0.273362;0.271628;0.269891;0.268198;0.266592;0.264989;0.26346;0.261951;0.260496;0.259145;0.257802;0.256587;0.255411;0.254336;0.253374;0.252528;0.251824;0.251221;0.250734;0.25037;0.25013;0.250044;0.250097;0.250394;0.250953;0.251835;0.253029;0.254632;0.256614;0.258911;0.26163;0.264514;0.26765;0.270733;0.273736;0.276604;0.279143;0.281467;0.283315;0.28483;0.285971;0.286746;0.287332;0.287745;0.288116;0.288509;0.288866;0.289322;0.289745;0.290208;0.290673;0.291046;0.291393;0.291668;0.291937;0.292273;0.292653;0.293202;0.293853;0.294632;0.295482;0.296325;0.297088;0.297748;0.298305;0.298725;0.299074;0.29932;0.299539;0.299715;0.299835;0.29998;0.300069;0.300173;0.300219;0.300199;0.300011;0.299683;0.29914;0.298369;0.297478;0.296345;0.295114;0.293781;0.29232;0.290871;0.28935;0.287882;0.286413;0.284974;0.283659;0.282386;0.281211;0.280091;0.279104;0.278164;0.277226;0.276374;0.275439;0.27444;0.273378;0.272245;0.271109;0.26986;0.268604;0.267276;0.265956;0.264604;0.263237;0.261986;0.260825;0.25989;0.259135;0.258575;0.258323;0.258329;0.258622;0.25925;0.260158;0.26138;0.263009;0.265026;0.267601;0.270609;0.274308;0.27849;0.283201;0.288785;0.294961;0.302302;0.31041;0.319821;0.330285;0.341594;0.354163;0.366986;0.380909;0.394933;0.409399;0.424011;0.437907;0.451663;0.464199;0.476266;0.487183;0.497244;0.506612;0.514709;0.522174;0.52844;0.533789;0.537977;0.541154;0.543254;0.544127;0.544072;0.543122;0.541235;0.538697;0.535601;0.531995;0.528246;0.524142;0.520053;0.515727;0.511531;0.50731;0.50302;0.498923;0.494718;0.490697;0.486584;0.482594;0.478592;0.474584;0.470689;0.466708;0.462924;0.458997;0.455281;0.451564;0.447975;0.444449;0.441022;0.437894;0.434855;0.432149;0.429666;0.427495;0.425573;0.423979;0.422866;0.422062;0.421579;0.421487;0.421689;0.422319;0.423334;0.424712;0.426466;0.428571;0.431063;0.433778;0.436835;0.440089;0.443501;0.447088;0.450763;0.454617;0.458364;0.462338;0.466112;0.469904;0.473634;0.477153;0.480619;0.483804;0.486915;0.489763;0.492561;0.495116;0.497576;0.499954;0.502204;0.504354;0.506338;0.508299;0.510124;0.511853;0.513434;0.514908;0.516255;0.517459;0.518584;0.519499;0.520338;0.52108;0.521589;0.521966;0.522285;0.52239;0.522404;0.522306;0.522098;0.521688;0.521232;0.520648;0.519961;0.519103;0.518194;0.517064;0.515799;0.514441;0.512997;0.511531;0.509912;0.508293;0.506535;0.504833;0.502948;0.501018;0.498985;0.496889;0.494683;0.492517;0.490417;0.488359;0.486331;0.484235;0.482233;0.480173;0.478187;0.476066;0.474022;0.471859;0.46973;0.467615;0.465493;0.463236;0.461027;0.458819;0.456589;0.454364;0.452075;0.449948;0.447794;0.445816;0.443744;0.441805;0.43989;0.438016;0.436234;0.434466;0.432786;0.431154;0.42971;0.428399;0.427171;0.426106;0.425269;0.424561;0.424228;0.424169;0.424483;0.425167;0.426285;0.427945;0.430099;0.432658;0.435871;0.439457;0.443782;0.448281;0.453542;0.458872;0.464695;0.470465;0.476541;0.482344;0.488297;0.493879;0.499703;0.505283;0.51095;0.516545;0.5223;0.527795;0.532829;0.537106;0.540217;0.542229;0.54298;0.54275;0.542164;0.541706;0.541607;0.542115;0.54317;0.544925;0.547079;0.549462;0.551624;0.553508;0.554824;0.555613;0.555996;0.555911;0.55571;0.555396;0.554886;0.554093;0.553395;0.552472;0.551551;0.550659;0.549787;0.549079;0.54858;0.548218;0.547836;0.547195;0.546416;0.545404;0.54417;0.542868;0.541712;0.540778;0.540232;0.539938;0.539849;0.539854;0.539915;0.53997;0.540046;0.539948;0.539743;0.539663;0.539488;0.539428;0.539365;0.539521;0.539951;0.540481;0.541279;0.542351;0.5437;0.545409;0.547439;0.549717;0.552315;0.555197;0.55821;0.561479;0.564912;0.568365;0.571883;0.575536;0.579013;0.582737;0.586264;0.58993;0.593626;0.597371;0.601116;0.605095;0.60897;0.613191;0.617296;0.621439;0.625554;0.629827;0.633825;0.637684;0.641437;0.64532;0.648955;0.652542;0.656021;0.659659;0.663046;0.666431;0.669717;0.672877;0.675742;0.678384;0.680733;0.682883;0.684696;0.686336;0.687766;0.688768;0.68971;0.690207;0.690682;0.690813;0.690624;0.690179;0.689922
